File Name: not saved
Channel 1: 'EMG 1', 13049 values, raw ADC, no filters.
Channel 2: 'EMG 2', 13049 values, raw ADC, no filters.
Channel 3: 'EMG 3', 13049 values, raw ADC, no filters.
Channel 4: 'EMG 4', 13049 values, raw ADC, no filters.
Digitals combined (event=16, d=8, c=4, b=2, a=1): 13049 values, .

-6	-31	-302	22	31
62	-45	-379	20	31
86	89	-87	51	31
28	172	-166	182	31
1	131	66	123	31
69	146	45	62	31
39	142	135	65	31
-49	46	146	86	31
-32	37	-12	139	31
-112	36	-18	83	31
-179	51	-44	96	31
-87	21	68	56	31
-6	-36	175	50	31
7	-17	121	110	31
-6	-53	33	199	31
-10	-34	175	259	31
-39	-27	287	141	31
16	-69	275	63	31
1	-57	461	111	31
-7	-65	613	155	31
139	-33	257	-47	31
141	-3	-330	-499	31
159	-19	-900	-583	31
154	-27	-1287	55	31
-16	-7	-1217	276	31
-31	30	-381	-223	31
-55	24	608	34	31
-74	-7	540	64	31
78	-20	182	-38	31
67	-11	63	664	31
-200	9	-22	675	31
-169	39	-82	372	31
56	40	-95	-29	31
80	-1	84	-424	31
-54	-6	50	-304	31
-124	2	108	-294	31
254	-14	211	-338	31
353	-19	228	-280	31
-66	-2	269	-184	31
-221	21	134	-30	31
2	21	-442	-281	31
32	-6	-1008	-113	31
-169	-2	-39	713	31
-121	15	956	970	31
-6	22	855	434	31
27	6	641	199	31
-46	-52	51	170	31
-76	-124	-581	-417	31
74	-140	-883	512	31
62	-59	-543	687	31
-67	57	175	-568	31
-17	204	254	-177	31
87	264	209	-391	31
136	154	465	-350	31
124	71	492	-103	31
10	32	167	-363	31
-45	-7	-73	-263	31
7	-18	-337	-452	31
55	1	-653	-42	31
11	24	-202	67	31
24	-5	211	-204	31
12	-27	212	-104	31
-98	-34	189	172	31
-26	-62	-265	199	31
21	-47	-467	354	31
49	-20	-213	420	31
109	-12	-17	-36	31
137	-2	298	-119	31
147	-14	201	-167	31
25	-44	-29	-161	31
179	-59	59	-109	31
207	-57	4	-217	31
-87	-14	102	-117	31
-122	62	182	2	31
-176	66	124	-51	31
-127	21	79	-103	31
-69	24	37	-186	31
-79	26	35	-314	31
26	-23	42	-304	31
-29	-45	132	103	31
-147	-14	44	414	31
-136	-4	-419	62	31
117	12	-881	255	31
113	16	-450	801	31
-22	-1	490	444	31
29	6	1061	-523	31
50	-4	974	-913	31
195	-12	307	-683	31
-14	-26	-151	227	31
-108	-58	-545	1788	31
78	-82	-704	1396	31
-7	-90	-445	335	31
34	-65	-71	249	31
-66	46	81	-54	31
-214	96	46	-112	31
-211	13	200	-403	31
-166	9	162	-444	31
46	-24	-14	-307	31
2	-114	-230	-441	31
-47	-38	-525	-321	31
137	44	-460	-320	31
106	44	-2	-99	31
87	118	158	-19	31
102	172	349	205	31
49	138	735	444	31
92	185	832	31	31
117	192	1088	-417	31
41	27	848	-369	31
-171	-83	-434	201	31
-250	-96	-2316	724	31
-61	-92	-2655	896	31
31	-58	-691	199	31
-49	15	1064	-81	31
3	12	1674	269	31
96	-108	496	-430	31
-62	-116	-291	-610	31
13	-38	-147	-468	31
122	50	-322	-407	31
147	118	162	-79	31
182	53	262	-394	31
-3	2	285	-824	31
-7	14	285	-625	31
-80	3	269	-36	31
-17	7	269	-64	31
39	18	12	382	31
-81	47	-114	673	31
-52	37	-305	163	31
-151	0	-238	317	31
-120	-40	-154	482	31
-27	-99	-32	367	31
-26	-64	-5	32	31
45	-27	-12	-38	31
159	1	32	-67	31
99	29	-21	-54	31
11	57	79	332	31
112	61	27	211	31
231	-49	-34	-26	31
196	-58	20	-37	31
78	-59	74	-47	31
-14	-99	61	-61	31
-259	-51	27	-33	31
-161	-37	24	-26	31
150	6	58	19	31
-123	99	228	24	31
-160	121	307	-34	31
-24	95	156	31	31
-123	39	-122	92	31
22	-39	-447	46	31
44	-62	-513	-62	31
149	-33	-178	-71	31
136	49	-82	-90	31
-14	75	-82	-166	31
133	-16	-4	-135	31
82	-34	129	2	31
-35	-16	425	84	31
-72	-30	272	60	31
-32	-14	-194	-77	31
-44	-37	-558	-235	31
-169	-44	-264	-206	31
-159	-12	382	-4	31
-142	44	606	189	31
-41	94	304	221	31
-7	73	-289	197	31
71	64	-202	-24	31
36	49	-52	-72	31
-96	24	-103	111	31
69	0	-41	-22	31
76	-16	-180	-159	31
102	-13	-197	-134	31
142	-24	-94	20	31
51	-22	161	242	31
-96	-17	360	190	31
-279	-6	338	30	31
69	-2	188	66	31
245	-1	82	38	31
-122	34	34	32	31
-165	31	22	10	31
-41	9	53	-105	31
61	2	162	-204	31
-121	-17	333	-397	31
-175	-20	7	-496	31
126	-15	-274	-294	31
23	-6	-363	423	31
3	5	-815	933	31
111	-14	-597	488	31
186	-22	37	-35	31
169	-24	495	-357	31
102	-15	936	-449	31
122	-9	596	-73	31
47	-30	209	314	31
-12	-17	179	587	31
-191	7	-59	883	31
-128	32	-34	765	31
-70	70	-295	-172	31
-192	32	-486	-659	31
-325	-3	-215	-436	31
-277	19	-291	-372	31
34	9	-415	-371	31
111	2	-298	-309	31
206	-5	-95	-78	31
331	-5	107	-94	31
220	-2	200	-74	31
172	-27	147	99	31
186	-12	124	179	31
84	-4	49	211	31
58	-3	-75	149	31
2	25	32	181	31
-76	24	168	-47	31
-31	19	109	-491	31
-68	22	-80	-592	31
-134	-5	-90	-99	31
-152	-33	-57	93	31
-94	-16	149	57	31
5	-16	482	148	31
-3	-21	229	114	31
-23	11	-22	310	31
11	12	-338	304	31
79	18	-560	29	31
156	45	-404	-237	31
29	26	-149	-302	31
-41	23	442	-159	31
48	19	612	-169	31
-8	-68	697	-429	31
-65	-144	393	-565	31
-98	-163	-448	-178	31
-76	-67	-538	-34	31
-26	84	-236	-106	31
-44	131	130	790	31
-9	57	271	1589	31
-6	-46	372	638	31
-30	-26	580	-151	31
-31	115	480	588	31
22	257	106	272	31
124	137	-639	-287	31
85	-24	-1334	419	31
35	-15	-984	452	31
65	-91	-225	-149	31
37	-49	-140	-361	31
-94	74	-36	-295	31
-111	41	129	-194	31
111	-6	142	-238	31
77	-41	144	-309	31
-128	-26	173	-230	31
12	2	213	-138	31
156	-32	140	-86	31
-72	30	133	-121	31
-64	117	146	-104	31
68	138	144	-111	31
-37	111	91	-116	31
114	-1	76	-63	31
87	-31	64	-66	31
19	-29	11	-52	31
170	-41	51	25	31
90	-8	79	39	31
102	-32	63	-89	31
57	-40	-13	-102	31
-48	-36	-60	-19	31
-97	-37	-44	126	31
-153	-29	-26	193	31
-120	-39	71	99	31
-161	-62	127	99	31
-157	-136	66	51	31
-128	-207	44	-11	31
-27	-219	97	24	31
68	-144	190	21	31
-34	41	207	32	31
-97	216	112	57	31
-2	257	21	71	31
171	198	-109	-33	31
172	132	-317	-197	31
101	74	-494	-51	31
98	37	-392	136	31
-10	21	-119	86	31
-51	-7	14	34	31
-66	-17	60	-91	31
-142	-2	24	-191	31
-91	11	-70	-91	31
-133	11	-10	-12	31
-84	31	98	61	31
96	33	169	121	31
0	-4	199	84	31
-42	-24	108	55	31
15	-49	117	27	31
120	-67	39	-2	31
150	-77	-79	9	31
143	-84	-119	35	31
147	-66	-157	37	31
40	-24	-56	-2	31
39	31	-27	-41	31
36	38	32	4	31
-6	38	275	14	31
-92	57	357	-21	31
-99	48	116	24	31
-107	-1	16	29	31
-131	-34	-11	17	31
-76	-14	-13	19	31
-68	-7	38	60	31
-43	10	-6	87	31
-29	48	41	-16	31
62	69	57	-82	31
99	59	86	-139	31
63	-22	-2	-227	31
44	-76	-134	-167	31
-13	-93	-196	-31	31
-6	-117	-224	227	31
9	-77	-160	438	31
-5	-92	-110	308	31
-76	-119	-22	29	31
-32	-82	61	-146	31
29	3	112	-120	31
-51	86	42	-6	31
-46	90	-31	75	31
-35	149	-14	-87	31
17	235	-42	-176	31
-36	176	-46	-18	31
-65	83	-19	121	31
69	137	-50	-42	31
97	87	-79	-211	31
61	-41	-54	45	31
-10	19	-6	66	31
86	6	75	-34	31
59	-41	170	-110	31
-19	-22	276	-259	31
85	-35	249	-640	31
121	7	122	-593	31
-8	18	24	644	31
-165	1	-209	1297	31
16	-21	-457	637	31
-4	-48	-405	-85	31
23	-65	-169	-34	31
131	-88	-43	132	31
-89	-60	34	244	31
-2	-46	56	313	31
46	-28	8	-52	31
16	-46	23	-226	31
47	-103	68	-247	31
49	-52	137	-202	31
82	57	167	-76	31
-14	158	94	52	31
-29	107	3	-23	31
-36	27	57	-84	31
-167	37	146	-42	31
-188	-35	105	-64	31
-115	-39	-11	-181	31
-81	-41	-61	-382	31
-12	-87	72	-274	31
-22	-58	180	-126	31
-24	-43	285	-74	31
62	3	283	-81	31
91	24	118	-126	31
109	36	-79	-132	31
96	-23	-244	-111	31
87	-96	-204	109	31
77	-31	-76	296	31
44	8	34	460	31
-10	51	71	652	31
-47	91	32	291	31
-56	86	-182	-5	31
-61	58	-297	-41	31
-49	31	-257	-341	31
-121	29	-223	-302	31
-50	12	-36	-237	31
143	16	49	-134	31
-69	5	61	66	31
-255	-17	62	229	31
-3	-71	33	402	31
76	-146	48	159	31
6	-131	68	86	31
89	-46	62	205	31
204	84	31	142	31
162	203	48	42	31
10	190	61	-43	31
-42	98	45	-59	31
-56	26	43	-29	31
42	-37	33	19	31
-8	-67	6	-4	31
-129	-79	0	-92	31
-102	-54	4	-76	31
-171	29	8	-2	31
35	91	10	-72	31
134	46	16	-91	31
3	10	29	-137	31
98	44	28	-239	31
94	-1	37	-265	31
106	-19	36	-203	31
122	-11	19	139	31
45	-6	-6	360	31
40	12	-52	187	31
95	-6	-52	21	31
121	-5	-34	31	31
-32	-19	-42	-10	31
-158	-4	-41	-42	31
-154	16	-3	2	31
-164	-18	55	-81	31
-77	-31	156	-214	31
-34	-20	219	-315	31
-73	-20	129	-423	31
-34	-16	-19	-498	31
18	-21	-44	-218	31
97	-16	45	528	31
109	24	44	577	31
49	-16	71	-226	31
19	-27	179	-315	31
32	29	180	119	31
72	4	46	851	31
108	-35	-232	1078	31
99	-47	-519	211	31
-59	-46	-545	71	31
-107	-113	-270	74	31
-71	-160	-42	-166	31
-108	-93	-17	-385	31
-59	7	54	-495	31
-65	176	192	-4	31
-9	357	277	186	31
6	287	233	234	31
51	47	14	201	31
136	-1	-101	206	31
119	9	-149	164	31
121	-29	-157	-211	31
38	35	-1	-322	31
37	44	26	-318	31
46	-34	-34	-265	31
5	43	-7	-114	31
-43	178	96	42	31
-68	94	147	154	31
-52	1	78	130	31
-46	57	83	41	31
7	60	54	-19	31
-37	0	-11	-107	31
-14	-71	-35	-176	31
124	-76	-70	-107	31
144	-64	-10	-63	31
-49	-84	81	-48	31
-211	-61	105	-17	31
-6	-59	84	-6	31
30	-43	59	-55	31
-87	-27	-1	-146	31
58	-20	-70	-164	31
69	-2	-74	-19	31
29	-12	-89	290	31
-16	-26	-71	242	31
-112	-34	2	-57	31
-126	-19	-16	81	31
-49	-1	-6	139	31
-139	60	62	61	31
-408	111	52	180	31
-199	-11	-20	178	31
142	-119	8	161	31
63	-52	65	80	31
157	-61	110	-187	31
259	-117	100	-589	31
177	-109	-16	-870	31
255	-105	-36	-955	31
229	-47	-100	-795	31
199	36	-137	223	31
157	86	-85	1762	31
58	66	-46	1737	31
2	50	124	238	31
-76	47	129	-124	31
-121	28	-67	-113	31
-133	25	-116	-497	31
-94	12	-60	-259	31
-74	30	-42	185	31
-67	30	-59	210	31
-51	4	13	-77	31
-11	-16	48	78	31
27	-26	54	279	31
46	-6	61	335	31
86	17	26	75	31
58	44	86	-151	31
-24	16	111	-59	31
-56	-61	54	-184	31
-47	-69	48	-196	31
-77	-24	49	-300	31
-166	28	40	-224	31
-214	69	48	12	31
-14	92	1	64	31
82	97	-22	-33	31
-118	57	26	-82	31
-106	20	34	-13	31
-26	23	29	-6	31
3	9	9	86	31
18	-16	-37	63	31
31	-34	-36	59	31
125	-41	10	-46	31
51	-49	38	-166	31
80	-42	17	-57	31
133	-19	-37	-50	31
9	17	-52	-97	31
5	107	-1	44	31
-19	128	48	224	31
-33	50	51	110	31
-14	2	22	128	31
-46	-25	-4	181	31
-43	-21	-67	4	31
-31	-9	-164	-34	31
22	-7	-94	-81	31
48	14	14	-54	31
41	-5	21	-94	31
89	-19	41	-181	31
142	-19	64	-169	31
156	-46	81	-205	31
142	-76	40	-2	31
89	-79	-18	295	31
-9	-21	-62	258	31
-37	55	-71	28	31
-86	97	-44	-66	31
-160	69	33	-79	31
-156	47	137	8	31
-169	41	122	72	31
-132	0	71	119	31
-120	-5	52	240	31
-142	-6	46	169	31
-23	-12	124	-11	31
77	-46	202	-62	31
44	-77	121	1	31
60	-47	-19	26	31
121	-14	-84	-41	31
178	41	-214	-185	31
197	60	-397	-394	31
74	40	-368	-573	31
-59	23	-125	-495	31
-51	-63	-82	-149	31
-19	-109	-159	539	31
-52	-82	-117	702	31
-117	-37	-17	126	31
-186	165	110	44	31
-226	203	72	-10	31
-161	15	-39	75	31
-185	12	-19	352	31
-171	6	102	387	31
98	-66	191	304	31
227	-44	229	52	31
240	46	287	2	31
242	94	236	-126	31
242	97	177	-306	31
256	82	102	-498	31
179	-59	-172	-711	31
61	-100	-213	-810	31
-81	-50	-132	-61	31
-166	14	-105	1058	31
-67	111	-20	574	31
-154	67	-16	107	31
-274	20	45	300	31
-49	16	108	7	31
-12	-35	151	-34	31
86	-58	118	-16	31
61	-26	15	21	31
-86	2	-27	121	31
61	42	-50	-28	31
76	61	-50	-254	31
65	12	12	-377	31
27	-14	72	-427	31
120	-30	46	-336	31
86	-21	14	132	31
7	-4	-66	590	31
32	-18	-127	383	31
-81	-8	-39	141	31
-47	1	65	106	31
-22	9	72	-111	31
-63	9	43	-24	31
-122	-14	2	20	31
-37	-33	-54	-64	31
61	-75	-85	-133	31
12	-139	-61	-85	31
56	-194	-71	7	31
77	-193	-127	-130	31
45	-100	-130	-160	31
56	38	-77	-194	31
72	113	128	-66	31
41	79	230	226	31
26	38	124	289	31
27	61	165	14	31
-19	87	268	-56	31
-82	247	232	106	31
-66	335	57	120	31
-29	91	-127	172	31
-111	-103	-287	81	31
-116	-113	-347	-59	31
-9	-82	-205	-78	31
17	-47	-66	21	31
48	-47	-96	16	31
57	-124	-212	-41	31
51	-148	-219	-194	31
90	5	-106	-274	31
102	139	-7	-196	31
53	162	17	-278	31
-40	126	85	-187	31
-6	93	176	-63	31
-79	87	185	95	31
-187	52	192	271	31
-149	-13	197	390	31
-142	-45	112	260	31
-87	-41	107	2	31
-100	-38	154	-122	31
-116	-22	136	-314	31
-80	-37	119	-334	31
49	-84	77	-310	31
182	-114	94	-84	31
207	-87	117	325	31
170	-47	154	1042	31
7	7	79	1321	31
97	39	-95	469	31
183	9	-129	-43	31
79	8	-242	-533	31
87	-2	-422	-509	31
-45	-13	-435	-173	31
-142	-17	-246	-434	31
-109	-5	-59	-207	31
-145	21	1	-183	31
-116	16	26	-111	31
-67	43	36	-77	31
-93	0	-7	-124	31
13	-41	-67	27	31
72	-7	-46	-3	31
94	2	63	45	31
142	56	169	-76	31
106	47	209	-119	31
167	-10	227	-111	31
117	18	162	32	31
86	11	1	295	31
79	1	-120	398	31
50	21	-51	196	31
67	30	116	-61	31
-8	25	76	-216	31
-49	9	-41	-454	31
-94	19	-133	-647	31
-84	-17	-140	-660	31
-69	-49	-97	123	31
-53	-40	-71	1053	31
-23	-47	111	821	31
-2	-14	216	312	31
6	-26	166	380	31
-20	-69	117	151	31
49	-66	64	61	31
92	16	55	267	31
36	211	119	82	31
-71	189	97	-120	31
-78	50	53	-95	31
-40	6	-4	-57	31
-104	-72	-85	-122	31
-189	3	-74	-68	31
-144	64	-54	-101	31
52	87	17	-194	31
56	87	-52	-171	31
2	-19	-116	-182	31
41	32	-64	-271	31
10	5	-80	-342	31
-9	-107	-58	-227	31
58	-181	-44	-9	31
132	-252	-9	49	31
141	-176	4	59	31
85	12	27	349	31
-2	118	92	501	31
-14	40	62	315	31
-11	74	61	129	31
-14	249	154	12	31
-31	315	122	-86	31
-113	204	12	-138	31
-171	75	12	-98	31
-198	-17	-3	-89	31
-132	-84	-26	-209	31
-8	-59	-81	-245	31
70	-81	-77	-70	31
116	-67	-21	85	31
139	-62	-41	44	31
157	-93	-98	-97	31
165	-95	-85	-196	31
51	-61	-84	-337	31
-37	13	-170	-440	31
106	61	-66	-514	31
166	97	37	-46	31
27	38	31	941	31
-2	27	69	963	31
-22	36	77	360	31
-103	-14	77	184	31
-96	-20	44	-5	31
-157	-41	4	-159	31
-140	-46	-26	-96	31
-76	-82	-116	-62	31
-62	-83	-214	-44	31
31	-44	-143	-44	31
106	-18	106	-20	31
55	16	255	52	31
30	0	317	121	31
99	-19	350	162	31
73	-66	238	153	31
72	-107	59	49	31
10	-82	-75	-260	31
-32	-21	-125	-417	31
36	87	-176	-207	31
-57	143	-204	-337	31
-89	31	-176	-310	31
-81	-39	-193	193	31
-107	47	-111	331	31
-79	105	-4	184	31
4	123	26	-9	31
90	94	46	91	31
47	28	71	214	31
19	17	81	99	31
36	39	26	-19	31
149	16	12	-97	31
182	-4	11	-94	31
7	-1	-8	-197	31
-7	-9	-37	-170	31
-8	4	-11	-43	31
-36	-12	135	19	31
-7	-27	174	211	31
-62	-18	112	330	31
-6	-16	56	198	31
-46	-15	-5	6	31
-184	-21	-28	-43	31
-87	19	-22	-87	31
-49	13	-16	-129	31
-67	-16	14	-60	31
-2	-4	38	-2	31
44	-43	14	-12	31
-20	-89	-16	72	31
-51	-71	-31	217	31
186	3	-12	86	31
146	67	-19	11	31
-69	69	-51	39	31
33	13	-14	-7	31
12	-23	12	31	31
-85	-25	24	-22	31
-72	-88	34	-86	31
-46	-140	32	-91	31
-24	-107	51	-42	31
-96	-2	42	3	31
-102	137	-1	28	31
19	155	-124	-137	31
141	113	-140	-369	31
146	109	-45	-201	31
39	60	-37	-16	31
102	79	-28	23	31
134	32	-45	11	31
82	-36	-29	71	31
52	7	19	282	31
-2	-25	1	330	31
31	-16	-12	151	31
-47	-17	-1	-59	31
-171	-32	65	-48	31
-149	-16	80	-59	31
-76	-37	36	-94	31
-39	-36	32	-12	31
-19	-62	-3	156	31
21	-104	14	241	31
37	-125	80	-11	31
54	-114	41	-129	31
51	-28	-18	-106	31
27	135	14	-15	31
61	225	58	243	31
62	191	38	202	31
3	83	-9	-5	31
-6	-16	5	-32	31
38	-46	-4	-100	31
38	-64	-53	-228	31
-74	-22	0	-264	31
-114	50	98	-351	31
-24	64	119	-355	31
104	15	79	-22	31
82	-64	41	635	31
-80	-139	-38	710	31
0	-165	-108	144	31
133	-106	-122	14	31
172	21	-106	-92	31
107	245	-46	-106	31
-17	353	-14	-37	31
49	198	-11	-117	31
82	57	42	-52	31
-29	25	68	-66	31
-46	-29	104	-64	31
-48	-51	162	-127	31
-172	-16	126	-98	31
-168	-17	46	-189	31
-153	-59	-83	-134	31
-217	-58	-194	279	31
-176	-37	-203	205	31
-18	-44	-202	-61	31
154	-72	-157	-186	31
112	-136	-96	-167	31
11	-122	-88	-39	31
-8	-88	-37	-61	31
36	-30	89	12	31
141	29	177	204	31
113	26	156	257	31
22	124	140	102	31
-1	146	115	-31	31
-9	77	77	9	31
-16	57	62	32	31
-36	12	5	0	31
-63	-8	-26	-76	31
-106	-29	-47	-62	31
-92	-62	-25	-45	31
-32	-51	17	-22	31
25	1	26	42	31
48	27	5	-2	31
82	38	-18	-81	31
139	46	0	-136	31
81	-8	1	-102	31
2	-41	19	17	31
-15	-36	8	178	31
56	-29	1	182	31
191	4	68	-6	31
82	27	172	-76	31
2	38	249	-166	31
23	-3	156	-134	31
-107	-41	11	33	31
-45	-47	-126	42	31
-69	-77	-225	99	31
-127	-75	-202	120	31
-63	-21	-123	186	31
-28	92	-55	217	31
17	156	-42	160	31
-38	133	-2	41	31
37	137	76	-35	31
104	84	73	128	31
27	12	3	47	31
-28	-11	-32	-116	31
-4	-64	-27	-74	31
-3	-57	-23	-49	31
-5	-34	-1	-36	31
-12	-47	14	-35	31
-139	-19	16	-36	31
82	-19	-8	-48	31
162	-24	-8	-70	31
-229	-34	7	-22	31
-219	-81	44	3	31
-12	-108	92	30	31
-18	-111	83	49	31
91	-96	49	-6	31
158	69	39	-56	31
80	250	24	-90	31
133	203	-54	-46	31
174	147	-65	-21	31
96	46	-62	-74	31
31	-111	-59	-31	31
10	-174	-7	19	31
-7	-145	40	4	31
-20	37	76	21	31
-57	122	69	-46	31
-37	81	24	-172	31
-77	52	-23	-177	31
-166	6	4	-215	31
-124	-12	6	-284	31
-142	-48	14	-120	31
-112	-42	31	488	31
-4	34	49	966	31
63	44	31	437	31
158	9	-76	1	31
175	3	-66	31	31
193	-12	-52	-20	31
192	-13	-61	64	31
117	17	11	-14	31
42	23	2	-36	31
-55	25	-7	-68	31
-76	36	-6	-49	31
-22	-7	11	-24	31
-64	-82	47	-50	31
-166	-111	46	4	31
-153	-48	52	-41	31
-64	44	10	-39	31
4	130	16	-64	31
-42	121	2	-34	31
3	20	-15	-22	31
124	-4	87	-46	31
17	-56	124	-111	31
69	-59	52	-132	31
147	8	2	-89	31
4	39	-25	-134	31
-35	86	-56	-109	31
-54	26	-83	-53	31
-82	-4	-87	217	31
-98	-16	-94	364	31
-124	-51	-125	117	31
-113	-24	-74	15	31
-100	-37	-10	11	31
-79	25	48	-27	31
-19	72	97	-59	31
5	20	42	-109	31
-5	-15	21	-56	31
-2	-49	29	-16	31
12	12	29	0	31
135	112	31	-4	31
235	71	-15	-68	31
186	20	-16	-129	31
93	9	26	1	31
49	-42	9	288	31
13	-41	-21	226	31
-112	-32	-17	17	31
-155	-67	-11	85	31
-52	-72	7	85	31
-17	-39	14	21	31
-124	12	4	67	31
-58	97	42	99	31
60	175	54	49	31
-47	19	1	-63	31
55	-214	9	-54	31
120	-192	27	1	31
80	-130	8	12	31
160	-31	45	46	31
95	134	54	65	31
87	104	22	92	31
55	27	-6	74	31
-13	24	-17	-48	31
-67	17	4	-149	31
-159	5	4	-97	31
-134	16	9	12	31
-69	50	20	-46	31
-67	13	6	-52	31
-99	-56	-17	16	31
-72	-83	-44	9	31
1	-72	-32	24	31
40	-49	1	-21	31
62	-13	2	-19	31
94	29	-15	2	31
97	30	-38	21	31
97	91	-6	50	31
110	160	17	37	31
91	117	2	32	31
32	116	34	-5	31
-25	59	16	-21	31
-90	-31	-42	-14	31
-106	-32	-51	-13	31
-88	-61	-45	-16	31
-77	-32	-17	-29	31
-63	-6	28	-39	31
-110	24	88	-41	31
-122	50	90	1	31
-54	-42	4	124	31
57	-97	3	163	31
92	-91	47	59	31
47	-32	81	6	31
57	24	82	-12	31
24	14	27	-22	31
-2	40	-52	11	31
49	93	-98	19	31
51	49	-35	11	31
-2	-79	34	-51	31
-37	-150	44	-92	31
-203	-124	43	-93	31
-272	-51	11	-125	31
-142	21	-17	-137	31
-26	96	-27	-32	31
72	72	-73	152	31
111	118	-90	251	31
141	209	-119	264	31
91	52	-145	174	31
45	14	-52	51	31
124	19	10	20	31
152	-71	36	-46	31
107	-29	81	-81	31
94	-36	61	-101	31
-39	-31	64	-57	31
1	-5	89	52	31
170	-15	69	46	31
-46	-5	38	30	31
-66	-15	42	9	31
-52	-16	56	-39	31
-137	-22	33	-64	31
-16	-21	27	-42	31
-52	-19	20	-12	31
6	-14	0	53	31
44	-12	-12	44	31
24	-8	-42	-5	31
70	7	-28	-39	31
16	1	-16	-88	31
64	-11	-24	-94	31
136	-31	-6	-121	31
150	-34	-1	-68	31
121	-20	20	19	31
12	-6	14	70	31
-90	12	-16	24	31
-98	2	-47	2	31
-116	-32	-76	50	31
-141	-22	-74	49	31
-115	28	-61	38	31
-87	73	17	-12	31
-44	130	102	15	31
-5	121	97	71	31
27	45	77	76	31
71	17	36	6	31
97	2	7	-49	31
103	-24	3	-4	31
104	-22	-22	-5	31
51	-22	-37	-17	31
-39	-9	-45	-20	31
-58	21	-12	-12	31
-20	-14	-5	0	31
-34	-47	-1	-6	31
-35	-15	37	16	31
-14	12	41	24	31
-77	2	22	23	31
-136	-59	-9	29	31
-101	-94	-12	38	31
-49	-34	19	30	31
11	51	32	12	31
84	74	-20	-15	31
94	28	-42	-28	31
86	-7	-22	-1	31
52	21	24	-32	31
74	49	86	-36	31
85	41	32	17	31
35	27	-55	1	31
57	29	-63	9	31
-49	34	-53	-10	31
-128	28	-34	-11	31
-132	0	15	6	31
-127	-10	14	-28	31
-65	12	7	13	31
-98	3	30	48	31
-32	-60	32	31	31
26	-116	44	-15	31
73	-122	1	-38	31
156	-104	-24	-6	31
26	4	-17	30	31
55	132	-4	9	31
197	50	-5	-27	31
137	23	-14	-8	31
93	109	12	16	31
8	39	11	19	31
-67	31	46	-9	31
-63	1	35	-19	31
-116	-47	20	-7	31
-51	-19	50	-8	31
-44	-20	20	-14	31
-70	49	13	-16	31
9	37	30	12	31
-10	12	32	33	31
-10	-2	-13	17	31
67	-38	-22	-3	31
39	-34	24	-16	31
28	-60	-2	-27	31
173	-24	22	-23	31
118	-16	43	10	31
-39	-33	33	26	31
-98	-12	28	-22	31
-144	54	12	-17	31
16	152	37	62	31
-19	133	-31	34	31
-171	56	-39	4	31
-57	-3	-2	49	31
-39	-42	-58	43	31
22	-50	-45	52	31
68	-41	-26	39	31
10	-46	-34	-104	31
22	-43	-30	-28	31
59	-8	-34	187	31
107	4	-31	74	31
100	45	16	-14	31
91	100	66	11	31
-12	64	46	24	31
-114	19	26	44	31
15	11	47	-21	31
157	-4	25	-14	31
52	-17	-12	12	31
-139	-7	-6	7	31
-77	9	-5	-7	31
51	8	9	-32	31
-45	-2	12	-67	31
-112	-8	-17	-96	31
-82	6	-22	-71	31
-45	24	12	-4	31
42	8	69	43	31
57	-73	71	9	31
29	-119	62	53	31
-2	-57	33	132	31
13	-38	-59	76	31
59	-43	-107	-15	31
32	-41	-109	-32	31
69	-38	-84	-21	31
59	-11	-21	-29	31
0	41	18	-5	31
-8	103	12	-12	31
-77	72	-7	-22	31
-107	2	17	-30	31
-108	-47	50	-47	31
-63	-55	27	-29	31
-44	6	6	-26	31
-42	94	19	2	31
42	106	12	52	31
97	24	-12	52	31
70	-5	-25	-29	31
82	-6	-40	-40	31
156	31	-6	-3	31
55	61	64	-37	31
-117	-2	76	11	31
-142	-9	46	21	31
-63	-5	23	-4	31
1	-8	-33	32	31
-62	12	-59	14	31
-88	-12	-12	1	31
-59	14	40	-22	31
-39	31	49	0	31
18	12	35	32	31
-13	-23	52	9	31
-13	-115	28	11	31
27	-66	12	13	31
55	35	29	25	31
166	21	20	36	31
201	41	0	49	31
182	70	-16	51	31
156	85	-36	0	31
71	96	-42	-33	31
-46	71	-5	-27	31
-111	69	-2	-24	31
-155	31	-5	-43	31
-137	2	14	-54	31
-2	-6	6	-22	31
-56	-44	-16	-1	31
-145	-57	-21	19	31
-74	-61	-6	86	31
21	-37	-17	114	31
62	-18	-44	59	31
40	-29	-30	-4	31
77	-24	6	-12	31
86	-22	12	-22	31
71	-16	16	-16	31
124	-11	-6	-3	31
116	-16	-22	-19	31
-6	14	17	21	31
1	36	29	46	31
-1	32	9	4	31
-91	34	-22	35	31
-49	11	-24	66	31
-104	14	17	-9	31
-172	-10	46	-33	31
-134	-62	49	-7	31
-124	-24	-1	-25	31
-94	16	-34	-42	31
53	30	-16	-34	31
71	28	37	-22	31
49	12	83	1	31
93	7	34	21	31
59	-44	19	30	31
92	-95	4	36	31
32	-104	-14	9	31
6	-70	9	-21	31
-4	-24	-30	-17	31
-68	-4	-9	27	31
-67	33	42	49	31
-95	52	51	4	31
-111	56	61	-70	31
-68	101	29	-69	31
-34	165	-9	-19	31
-92	117	-61	-52	31
-17	40	-107	-60	31
56	33	-80	21	31
108	2	-52	137	31
131	5	-8	119	31
-6	-9	54	48	31
6	-31	41	42	31
36	-47	-4	-50	31
51	-76	-7	-57	31
32	-52	10	-2	31
-72	-76	-1	8	31
-51	-79	28	47	31
-41	-47	107	59	31
-41	-50	111	30	31
56	-72	77	-7	31
81	-79	32	-1	31
36	-24	-37	15	31
33	53	-76	-28	31
62	152	-85	-27	31
129	187	-78	10	31
137	147	-46	-14	31
59	94	-10	-4	31
84	26	-2	-17	31
193	-11	12	-26	31
108	-22	9	-16	31
-93	-42	-9	-31	31
-148	-43	21	-19	31
9	-37	20	-31	31
109	-49	21	-14	31
-178	-29	33	2	31
-282	5	7	17	31
-123	19	3	37	31
-165	48	5	6	31
-119	52	16	-2	31
75	19	14	12	31
151	17	16	129	31
30	16	14	175	31
39	-21	-21	26	31
136	-42	-33	-32	31
153	-54	-19	-9	31
90	-62	9	2	31
39	-67	20	32	31
93	-38	42	34	31
66	68	61	29	31
76	173	67	-5	31
-34	101	-1	-95	31
-153	-62	-92	-106	31
-91	-33	-63	-53	31
-125	1	-52	-46	31
-167	-6	-33	2	31
-113	42	24	65	31
-53	5	59	17	31
48	-28	87	-1	31
150	-110	52	19	31
160	-134	-37	-16	31
184	-47	-47	1	31
172	41	17	17	31
118	142	33	19	31
49	106	19	17	31
-9	33	-26	16	31
-21	11	-41	23	31
-118	-22	5	-11	31
-157	-34	35	-59	31
-118	-45	57	-36	31
-105	-6	89	22	31
-59	24	61	-29	31
-72	-6	5	-46	31
-109	9	4	-15	31
-52	34	-12	-25	31
38	21	-39	52	31
99	16	-82	119	31
102	22	-88	61	31
79	36	-46	4	31
58	57	-15	8	31
77	58	38	-22	31
72	1	33	7	31
21	-36	-9	29	31
10	-54	4	-26	31
-23	-62	12	-2	31
-70	-21	22	-8	31
-51	8	22	1	31
54	15	-4	18	31
17	-9	3	2	31
-67	-16	8	14	31
6	22	23	19	31
23	35	37	31	31
64	-9	23	14	31
89	-62	25	4	31
14	-69	12	9	31
-27	-37	1	15	31
-76	33	16	14	31
-137	39	2	-32	31
50	2	-21	-38	31
174	-9	12	-5	31
-13	-15	26	19	31
-159	-3	7	32	31
-205	-9	9	9	31
-126	46	32	-4	31
-46	89	11	-4	31
-17	46	-30	-31	31
54	62	-21	-51	31
-24	40	-37	-42	31
-129	-20	17	-31	31
-30	17	94	-16	31
174	9	46	-5	31
172	-33	8	-7	31
38	1	13	-21	31
37	-16	11	21	31
38	-51	6	79	31
50	-12	-9	27	31
18	-13	-14	85	31
-102	-30	-5	181	31
-179	13	-12	60	31
-119	16	-36	12	31
-31	14	-36	17	31
-54	29	-14	-19	31
-9	-9	-9	19	31
47	-67	13	-5	31
52	-126	29	-22	31
136	-132	19	-2	31
250	-35	9	1	31
276	136	1	-26	31
139	165	-13	-51	31
55	53	-30	-36	31
-2	-21	12	-65	31
-72	-67	42	-43	31
-69	16	38	-35	31
-73	89	-2	-36	31
-72	68	1	32	31
-102	91	67	18	31
-104	59	26	-13	31
-111	22	-14	15	31
-112	69	-21	16	31
-42	39	-55	41	31
-9	2	-119	66	31
1	-2	-146	31	31
97	-83	-94	27	31
174	-66	-55	31	31
109	-57	15	9	31
78	-61	106	-29	31
93	-24	84	-54	31
46	-26	17	-52	31
-24	24	15	-44	31
-74	7	-3	-43	31
-56	2	-5	-21	31
-64	18	31	14	31
-159	19	21	11	31
-127	46	-2	11	31
-23	44	7	33	31
-2	69	6	40	31
4	21	-23	7	31
6	-15	-29	-11	31
39	-13	-12	-7	31
38	-27	2	9	31
16	-14	-9	15	31
22	-24	5	34	31
80	1	29	101	31
116	36	24	99	31
-14	59	17	24	31
-86	36	49	-71	31
-37	-2	66	-48	31
-61	-35	24	2	31
-84	-99	18	-12	31
-132	-95	26	49	31
-147	-74	12	31	31
-121	-25	12	-37	31
-92	60	21	-50	31
114	75	34	-67	31
106	112	20	-76	31
5	95	-25	-59	31
81	2	-17	34	31
29	-9	16	147	31
104	-66	3	125	31
156	-65	4	57	31
71	-32	0	24	31
-33	-43	-16	14	31
-38	42	-11	66	31
54	67	4	39	31
-11	47	24	-33	31
-31	36	-2	-26	31
-94	21	-26	9	31
-88	-13	-5	40	31
37	-86	-28	2	31
19	-95	-43	-19	31
-39	-46	-7	-9	31
31	27	-2	-32	31
180	69	36	-15	31
224	75	66	-22	31
160	76	46	-11	31
114	70	27	25	31
173	36	6	24	31
61	-13	51	9	31
-12	-19	50	-10	31
3	-39	-7	-6	31
-100	-44	-17	-26	31
-67	16	-12	-53	31
-117	42	7	-39	31
-140	-14	-35	5	31
-94	-33	-56	25	31
-81	-32	-25	-9	31
-8	-100	-20	-4	31
36	-100	-2	36	31
63	-75	2	61	31
22	-52	9	16	31
56	28	-1	-23	31
80	58	-1	32	31
39	29	-2	26	31
22	0	-46	-15	31
-16	0	-44	-16	31
7	46	7	7	31
-27	76	49	21	31
-89	82	56	6	31
-85	91	41	2	31
-92	54	17	-3	31
-78	17	-11	0	31
-52	-1	-29	3	31
-34	-12	0	18	31
-20	-4	24	15	31
47	4	18	1	31
71	20	7	-4	31
17	-1	-12	-14	31
41	0	4	11	31
45	45	26	34	31
117	28	19	22	31
127	-23	-16	-7	31
-2	-85	-32	22	31
-41	-121	9	11	31
-91	-122	22	-38	31
-87	-99	30	22	31
-44	4	24	32	31
-91	175	6	-4	31
-108	184	-34	-7	31
-110	7	-106	11	31
-107	-40	-32	1	31
-24	-44	79	-34	31
56	-11	100	2	31
163	49	44	14	31
264	-17	-5	32	31
124	-7	29	25	31
7	6	9	4	31
-60	54	6	3	31
-56	143	12	-6	31
158	109	17	-27	31
-16	49	49	-52	31
-149	-27	43	-11	31
-18	-97	34	-25	31
-61	-116	11	-16	31
-11	-65	7	-1	31
-66	21	3	-50	31
-71	19	-21	-38	31
12	-22	-37	4	31
-23	27	-52	41	31
35	82	-6	7	31
63	40	25	20	31
141	1	-2	59	31
151	-8	-6	59	31
118	-19	-16	37	31
94	-17	-16	33	31
31	-23	-2	61	31
67	12	-1	32	31
-8	22	-24	14	31
-107	-3	-60	-24	31
-141	5	-43	-57	31
-138	-16	-11	-94	31
-96	-16	17	-90	31
-71	-2	31	-19	31
-19	-14	32	1	31
4	-41	21	12	31
34	-59	11	50	31
88	-5	32	110	31
148	45	11	114	31
108	44	-30	14	31
-12	61	-40	-35	31
-8	72	-57	-30	31
25	11	-52	-14	31
-10	-59	-28	39	31
-76	-49	3	61	31
-82	-12	86	52	31
-41	34	86	16	31
-151	51	47	-41	31
-229	-24	26	-54	31
-76	-42	-12	-4	31
-43	-38	-31	-1	31
-56	-76	-32	-14	31
81	-81	0	1	31
102	-82	4	-17	31
108	-28	0	-15	31
136	56	-12	-2	31
151	132	-29	8	31
108	113	-26	5	31
21	4	-18	17	31
77	-12	37	18	31
44	-1	90	20	31
-14	53	87	23	31
-26	115	24	8	31
-46	51	-2	-7	31
-22	9	14	-39	31
-42	-9	-23	-49	31
-32	-99	-52	-19	31
-107	-69	-6	21	31
-132	8	58	30	31
36	39	37	22	31
64	126	21	54	31
66	76	29	68	31
94	-26	-1	1	31
81	-54	-6	-31	31
102	-101	-4	30	31
69	-66	-29	79	31
36	12	-45	52	31
-20	67	-36	-26	31
-91	61	-38	-21	31
-117	30	-27	-3	31
-144	29	6	-8	31
-167	17	34	29	31
-181	19	54	9	31
-144	1	53	-22	31
-96	-21	29	-5	31
-14	-41	6	15	31
159	-69	-11	3	31
240	-73	-24	-43	31
186	-54	-32	-23	31
121	2	-30	26	31
103	66	17	-1	31
92	81	67	-25	31
36	33	43	1	31
8	-37	0	30	31
-27	-62	-5	26	31
-86	-21	6	37	31
-92	53	12	28	31
-112	78	7	-7	31
-205	27	-1	-9	31
-152	8	11	-16	31
-54	18	26	-29	31
-36	-4	17	-54	31
52	19	-1	-2	31
97	27	-7	-22	31
102	-14	-26	-109	31
111	-24	-29	-6	31
142	-17	6	62	31
122	-2	36	-8	31
72	-4	62	19	31
41	-12	37	42	31
8	6	-1	16	31
-36	25	8	2	31
-124	41	8	-19	31
-134	31	4	-14	31
-177	9	-22	-17	31
-156	-3	-51	14	31
-57	-24	-20	7	31
-63	-49	21	-4	31
-42	-11	24	26	31
9	9	21	16	31
83	-39	-12	18	31
126	-47	-31	-6	31
145	-57	-32	-27	31
165	-26	-32	-15	31
83	36	21	-6	31
37	-6	19	-13	31
51	-15	-14	25	31
-21	16	24	41	31
-128	6	44	-22	31
-89	64	74	1	31
1	72	67	44	31
-97	12	11	58	31
-53	25	11	4	31
20	11	-19	-34	31
14	21	-34	15	31
74	46	-27	8	31
5	-32	-45	6	31
63	-79	-34	11	31
107	-70	-36	16	31
94	-62	-30	25	31
87	4	-23	24	31
82	82	-9	19	31
69	170	38	12	31
-78	228	55	4	31
-126	101	29	-1	31
-142	-37	-1	1	31
-127	-67	-25	-18	31
-31	-71	-23	-6	31
27	-69	-14	-7	31
-30	-126	-8	-13	31
-40	-132	0	-6	31
36	-48	12	2	31
33	22	14	40	31
92	82	3	46	31
140	45	-4	28	31
114	8	3	17	31
83	4	34	12	31
89	8	39	-1	31
102	40	24	-14	31
0	-5	-3	-32	31
-91	9	12	-21	31
-85	18	30	28	31
-80	-34	1	2	31
-84	-73	12	-49	31
-118	-72	29	7	31
-131	-12	30	38	31
-62	41	9	22	31
-2	101	-27	19	31
75	26	-30	11	31
122	-52	-8	30	31
89	-18	11	6	31
112	14	43	-3	31
74	73	69	3	31
10	-6	-1	14	31
-6	-91	-32	10	31
-37	-54	-19	14	31
-12	-11	-47	17	31
-56	84	-41	-9	31
-109	142	-37	34	31
-102	138	17	-19	31
-121	78	56	-32	31
-101	39	67	-4	31
2	52	76	-24	31
67	16	32	-4	31
25	-11	-5	-16	31
31	-28	-30	20	31
53	-30	-14	32	31
78	-19	-16	21	31
130	-16	-24	-4	31
104	-11	-21	-49	31
54	-17	-21	-61	31
22	-30	-5	-74	31
24	-43	-14	-62	31
0	-48	-17	-23	31
-62	-88	-16	41	31
-68	-73	-9	142	31
-106	2	-8	166	31
-114	47	8	81	31
-67	91	10	81	31
-11	67	-21	58	31
-11	32	2	-14	31
-84	27	14	16	31
-18	17	25	17	31
26	14	12	-63	31
66	-29	-30	-73	31
164	-69	-1	-37	31
138	-98	30	-44	31
62	-89	1	-27	31
16	-26	-17	15	31
37	42	-6	101	31
90	82	-4	90	31
8	34	26	-31	31
-101	49	88	-14	31
-82	47	98	12	31
-110	-14	45	-9	31
-64	46	18	6	31
-42	56	19	-6	31
-91	23	-10	-21	31
-19	-23	-13	-46	31
87	-59	22	-44	31
193	-34	9	-13	31
105	-30	-2	-35	31
22	-9	6	-35	31
96	-76	5	-6	31
56	-193	1	5	31
5	-203	1	12	31
4	-64	-24	8	31
6	152	-78	1	31
-71	265	-61	-1	31
-112	217	12	9	31
-155	96	79	42	31
-175	15	73	93	31
-2	3	27	79	31
7	64	-1	20	31
-55	72	-24	-4	31
7	-6	-50	-36	31
52	-56	-61	-34	31
74	-59	-24	-21	31
39	-27	-19	-14	31
28	34	4	12	31
31	63	28	34	31
31	49	25	34	31
50	48	12	-14	31
26	-9	-23	12	31
-46	-42	-8	5	31
-99	-9	-12	-36	31
-101	-3	-16	-57	31
-100	7	-4	-102	31
-64	-17	-4	-27	31
-17	-59	-13	21	31
11	-31	2	19	31
26	25	63	42	31
35	-1	49	56	31
14	-81	7	57	31
16	-97	-6	19	31
71	-92	-26	14	31
55	-56	-2	19	31
73	7	43	19	31
62	17	55	34	31
-22	-19	42	28	31
4	-62	37	20	31
-51	-17	46	4	31
-89	96	66	-6	31
-12	140	42	-29	31
-52	54	-19	-50	31
-41	8	-26	-35	31
-1	21	12	-12	31
4	-12	10	51	31
37	2	-6	96	31
68	-14	-11	7	31
102	-2	-19	-55	31
127	14	-11	-2	31
76	-22	-21	-19	31
76	-24	-41	-26	31
122	-29	-31	-16	31
50	-46	-19	-21	31
47	-72	-7	3	31
26	-42	9	1	31
-24	-1	21	14	31
-92	57	34	2	31
-195	91	9	-10	31
-97	58	-27	-3	31
-24	41	-27	-13	31
-77	14	-1	11	31
-74	-9	10	31	31
115	-28	3	1	31
171	-22	-2	2	31
56	-7	-2	71	31
114	17	3	87	31
53	55	2	27	31
27	43	24	24	31
21	10	36	7	31
-19	4	21	-2	31
34	25	19	39	31
-66	45	14	3	31
-78	47	6	1	31
-86	49	2	-6	31
-184	25	27	-53	31
-173	-6	39	-85	31
-76	-7	24	-114	31
-15	-13	-8	-67	31
-19	-25	-50	40	31
19	-38	-61	79	31
59	-54	-52	61	31
104	-58	-39	-13	31
187	-26	-26	-19	31
200	29	9	37	31
29	50	42	54	31
-69	66	57	101	31
-74	46	51	21	31
-172	-19	35	-19	31
-99	-59	28	-10	31
-51	-46	9	-39	31
-71	-7	-4	-27	31
-12	41	-4	6	31
-17	111	-10	117	31
-7	86	-29	39	31
-47	9	-26	-124	31
-25	7	20	-92	31
82	12	36	-32	31
84	-26	30	22	31
87	-52	17	68	31
80	-60	-5	-2	31
47	-44	1	22	31
66	-1	17	61	31
34	33	13	-19	31
-26	58	-10	-6	31
-91	48	-9	27	31
-30	-9	-27	34	31
16	-60	-19	31	31
-103	-96	25	18	31
-122	-93	-1	1	31
-74	-94	-7	-14	31
34	-104	23	-9	31
37	-57	23	-22	31
59	53	48	-7	31
168	189	75	16	31
131	197	2	1	31
96	84	-70	-1	31
77	63	-46	12	31
49	64	-37	-45	31
1	52	-39	-36	31
-53	-4	-17	61	31
-92	-91	-18	47	31
-112	-99	-23	6	31
-61	-113	-4	15	31
-48	-39	42	-7	31
-97	12	56	-9	31
-64	49	9	69	31
26	126	-24	34	31
75	76	-9	9	31
69	48	11	-17	31
60	31	-14	-84	31
54	-1	-56	-46	31
64	-30	-51	31	31
142	-49	-9	80	31
127	-28	56	22	31
-17	-15	79	27	31
-19	-17	37	29	31
-6	-46	58	18	31
-59	-46	82	12	31
-106	-64	30	-30	31
-142	-44	-27	-16	31
-139	60	-17	1	31
-138	139	31	16	31
-69	162	26	3	31
8	128	6	9	31
55	57	-8	11	31
60	-24	-1	-13	31
87	-41	-7	-41	31
135	-58	-50	-43	31
116	-74	-47	1	31
130	-52	-14	-24	31
117	-47	-4	-70	31
70	-17	12	35	31
-20	-2	34	100	31
-93	6	2	48	31
-20	12	-11	1	31
-64	2	14	-17	31
-176	4	9	14	31
-121	2	-6	-8	31
-114	-1	-9	-3	31
-132	-9	-11	-16	31
-99	-9	-19	-18	31
16	-12	-41	9	31
154	-7	-29	-42	31
141	-2	17	-17	31
113	-44	41	79	31
119	-82	64	72	31
96	-87	65	50	31
37	-47	33	44	31
12	22	11	32	31
26	39	8	31	31
-11	34	3	5	31
-57	48	-17	4	31
-109	54	-53	-36	31
-80	66	-31	-1	31
-40	43	36	85	31
-96	10	46	32	31
-39	44	28	-24	31
-3	12	6	-66	31
12	-47	-12	-90	31
107	-35	-24	-41	31
139	18	-26	24	31
125	108	-17	37	31
54	86	-5	-2	31
62	-34	-12	4	31
45	-44	-10	45	31
-3	-19	10	43	31
-9	-18	12	13	31
-79	26	71	1	31
-87	20	94	-9	31
-97	-6	39	-9	31
-101	0	16	3	31
-94	-6	24	-6	31
-102	-4	11	-1	31
-41	-2	6	4	31
37	-9	10	-7	31
101	-29	-12	-5	31
123	-32	-10	-7	31
83	-13	-30	-15	31
70	-6	-49	-27	31
92	4	-19	-36	31
87	-10	-4	-19	31
51	-34	-11	-2	31
2	1	-11	20	31
-5	63	22	44	31
18	79	12	36	31
-43	21	-12	17	31
-97	4	11	1	31
-36	-2	30	6	31
-42	-24	38	17	31
-71	-12	11	21	31
-46	-27	-7	0	31
-3	13	4	-12	31
77	47	-10	-23	31
29	-11	-4	-19	31
-41	-49	17	22	31
20	-21	17	21	31
136	-2	-5	20	31
153	31	-26	-9	31
14	94	-19	-14	31
-74	92	-15	16	31
-182	22	-17	16	31
-106	-100	-3	14	31
16	-108	4	-19	31
-136	-31	4	-12	31
-106	-37	14	-11	31
-94	-29	27	-14	31
-93	44	16	-32	31
14	116	-14	-40	31
-7	109	-21	-17	31
-7	67	-14	7	31
-27	9	3	56	31
48	-29	41	113	31
156	16	53	112	31
124	38	23	6	31
99	16	-16	-31	31
119	-17	-14	-26	31
89	-10	11	-23	31
17	12	9	-40	31
-21	-31	5	-69	31
-38	-55	21	-34	31
-48	-46	-4	-34	31
-73	-6	19	-12	31
-61	46	31	20	31
-11	61	-12	82	31
14	69	-6	106	31
44	-2	-13	7	31
50	-117	-16	11	31
1	-105	-18	31	31
-19	-29	-28	6	31
68	11	-32	22	31
97	66	-40	-49	31
8	95	19	-48	31
-3	65	71	89	31
21	94	37	28	31
-34	82	7	-51	31
-71	-6	-8	-1	31
-68	-42	-15	2	31
-88	-50	4	-4	31
-75	-1	7	-33	31
-46	11	-12	-34	31
-12	-64	-31	-1	31
29	-61	1	2	31
71	-21	7	23	31
112	-11	-17	60	31
102	-10	-2	99	31
92	-13	4	39	31
110	-4	21	-12	31
132	-1	15	-9	31
67	0	-8	-46	31
-49	2	-14	-35	31
-64	7	3	-5	31
-98	17	44	9	31
-140	21	30	11	31
-106	26	23	39	31
-115	16	56	51	31
-102	6	36	23	31
-37	-4	2	-2	31
9	-21	-12	-12	31
-14	-16	-15	12	31
-67	-11	-16	6	31
-6	-12	-16	-2	31
48	-11	-24	-3	31
69	-14	-18	-14	31
109	-21	2	-17	31
110	-22	17	-11	31
27	4	56	12	31
-3	47	61	6	31
23	49	20	-14	31
-101	10	22	-20	31
-109	6	14	-9	31
-60	2	2	-1	31
-67	-16	2	0	31
-14	-17	-22	-7	31
-11	-21	-16	-12	31
18	-13	-16	1	31
69	1	-15	9	31
104	31	-5	23	31
67	34	-25	17	31
44	-17	-17	10	31
97	-29	27	13	31
76	-32	40	16	31
56	-36	1	23	31
34	5	-4	-4	31
-24	63	2	-45	31
-57	45	-14	-62	31
-60	-63	38	-9	31
-69	-61	67	58	31
-98	11	28	32	31
-83	79	4	74	31
-56	170	-3	97	31
-44	135	-9	1	31
-12	39	-29	-12	31
46	-11	-35	11	31
81	-63	-21	-23	31
102	-96	-19	-29	31
124	-118	-7	-13	31
84	-96	-5	26	31
47	-1	-2	102	31
23	45	24	36	31
-2	117	36	17	31
-46	139	-36	-4	31
-107	27	-73	-45	31
-127	31	19	26	31
-134	22	14	-17	31
-95	-33	5	6	31
-49	-32	52	21	31
-46	-83	26	-44	31
-1	-94	34	-24	31
42	-47	25	-24	31
82	41	12	-22	31
144	149	26	22	31
123	119	-14	57	31
101	14	-19	91	31
104	-26	-5	81	31
46	-43	-21	4	31
48	-23	-57	-57	31
72	-2	-67	-27	31
-16	39	-37	-21	31
-131	62	-17	-20	31
-161	10	42	-2	31
-155	33	71	-12	31
-57	40	31	-6	31
47	-8	50	-31	31
-71	-34	66	-18	31
-24	-66	21	-14	31
21	-71	12	-9	31
-61	-105	11	25	31
6	-89	14	20	31
107	-30	25	-2	31
159	-37	-7	-15	31
91	54	-22	-7	31
91	123	-51	-12	31
21	107	-20	24	31
-1	94	65	41	31
-42	12	26	13	31
-99	-14	2	19	31
17	-7	31	12	31
-97	-16	-3	12	31
-110	-8	-10	20	31
-21	-24	-19	14	31
-28	-13	-42	-7	31
27	-22	-42	-38	31
42	-44	-17	-27	31
112	-47	41	13	31
151	-30	67	67	31
154	34	93	64	31
151	26	62	-31	31
87	-41	-13	-23	31
22	-16	-16	-13	31
-47	68	-24	-61	31
-71	79	-33	-11	31
-55	46	-32	51	31
-16	33	-27	24	31
-20	-6	-4	-8	31
-52	-13	-4	-1	31
-42	21	13	-16	31
-17	45	11	11	31
21	52	-3	6	31
25	7	-9	9	31
14	-36	-22	18	31
22	-77	-12	-4	31
47	-94	-9	11	31
73	-94	4	1	31
51	-89	-8	11	31
16	-21	-36	4	31
-5	77	-11	-27	31
-24	167	24	-29	31
-39	114	30	-19	31
-52	9	24	-6	31
-97	-18	-5	0	31
-135	-1	-22	-16	31
-92	19	29	-21	31
-54	-11	26	27	31
-24	-39	-5	39	31
31	-54	22	8	31
47	-32	51	3	31
61	31	62	31	31
87	86	32	78	31
92	57	17	31	31
81	7	29	-31	31
56	9	12	-4	31
7	-27	-6	-29	31
15	-21	-8	-44	31
-18	-36	4	-8	31
-126	-57	2	19	31
-77	-21	11	28	31
-57	-6	23	32	31
-88	17	3	70	31
-30	44	8	53	31
-75	47	14	-5	31
-57	11	-15	-29	31
13	2	-47	-2	31
-74	21	-78	0	31
-33	13	-41	-5	31
36	17	16	7	31
45	24	47	-12	31
104	22	69	1	31
70	14	49	-4	31
49	-8	22	2	31
22	-53	6	14	31
-2	-69	1	22	31
-27	-40	-10	32	31
-70	6	-34	4	31
-85	69	-37	25	31
-83	74	-22	29	31
-32	47	-25	-10	31
-2	23	4	-6	31
7	-24	21	-47	31
22	-41	-26	-69	31
41	-26	-4	26	31
46	14	7	44	31
49	54	-9	-6	31
124	46	-11	-3	31
139	31	-17	10	31
38	0	7	11	31
24	-64	6	4	31
-2	-89	14	20	31
-22	-72	21	16	31
23	-46	17	13	31
-48	-53	22	27	31
-62	-74	28	31	31
-117	4	42	31	31
-122	94	-19	-46	31
-2	129	-41	-49	31
-24	122	-14	20	31
34	87	6	20	31
67	27	25	6	31
61	-29	-13	-22	31
84	-8	-26	-9	31
29	-46	2	9	31
6	-64	60	12	31
-47	-48	69	17	31
-31	-69	6	21	31
21	4	-11	12	31
7	-24	-58	-46	31
-6	-56	-63	-32	31
-17	48	-17	30	31
-37	137	6	47	31
-67	206	15	-12	31
-43	87	1	-41	31
-3	-21	30	14	31
38	-3	17	-5	31
71	-4	4	6	31
66	16	2	2	31
66	-11	-4	-21	31
91	-6	7	-9	31
114	14	-1	2	31
106	-7	5	42	31
56	-26	3	51	31
1	-36	1	38	31
-33	-27	9	-9	31
-57	-27	24	-9	31
-66	-12	46	-15	31
-91	-22	54	-46	31
-124	-35	40	-20	31
-88	-28	4	-36	31
-26	5	-42	-16	31
-12	56	-47	31	31
27	30	-9	56	31
79	15	2	39	31
91	-14	10	2	31
113	-43	13	4	31
128	-17	6	-12	31
86	-11	32	3	31
35	37	40	-6	31
4	67	21	14	31
-51	39	20	52	31
-90	14	6	38	31
-102	1	-2	27	31
-113	-1	-2	-2	31
-109	-1	-6	5	31
-100	1	1	-11	31
-78	-10	-14	-29	31
-54	-12	3	6	31
-23	-10	39	17	31
34	-11	31	-1	31
85	-11	22	-2	31
100	-11	0	9	31
122	-6	-6	23	31
131	-17	12	-22	31
96	-32	-11	-46	31
27	-26	-37	-24	31
-36	-14	-34	-99	31
-56	-15	-18	-52	31
-65	14	6	-24	31
-76	62	34	-54	31
-144	36	30	22	31
-147	46	3	97	31
-76	59	-12	123	31
-52	-19	-2	78	31
4	-24	10	43	31
67	-19	-2	2	31
96	-9	4	7	31
64	13	1	-3	31
107	-10	29	-6	31
122	0	22	17	31
61	-6	-39	-9	31
34	-7	-31	0	31
-31	-17	-29	4	31
-41	-52	-24	26	31
-41	-72	-16	68	31
-77	-40	-18	69	31
-106	36	-2	40	31
-85	59	9	7	31
-45	41	56	-44	31
-29	15	86	-35	31
11	23	33	4	31
42	31	-9	-4	31
85	-11	0	2	31
95	9	-4	30	31
79	19	5	18	31
87	-29	-8	-91	31
94	-21	-21	-91	31
77	4	-2	-9	31
1	62	-10	-18	31
-37	82	-4	-12	31
-43	5	4	1	31
-76	-14	-2	2	31
-101	-63	9	-3	31
-129	-46	5	2	31
-127	42	-27	27	31
-78	23	-19	43	31
-38	62	20	37	31
-25	114	17	33	31
2	81	-4	22	31
61	37	16	4	31
127	-21	21	6	31
157	-60	-14	-14	31
151	-24	3	-21	31
103	31	49	-10	31
72	46	49	-6	31
41	35	21	-8	31
-13	10	11	-8	31
-17	4	10	-1	31
-41	2	11	-5	31
-122	6	9	-9	31
-177	-1	-19	-19	31
-51	-26	-20	-9	31
8	-48	9	40	31
-54	-64	27	72	31
-16	-71	31	17	31
10	-61	2	1	31
109	37	-14	14	31
121	83	15	-9	31
114	-1	-3	15	31
81	-26	-34	12	31
-36	-49	-39	26	31
-24	-66	-24	37	31
-78	-20	-6	35	31
-91	3	0	37	31
-97	41	12	10	31
-102	24	-8	8	31
-50	-31	11	5	31
-81	-2	31	12	31
-44	24	49	22	31
27	79	66	58	31
59	102	14	32	31
64	49	-21	-77	31
120	19	-34	-44	31
141	-24	-8	21	31
126	-29	-1	9	31
109	-19	-3	12	31
41	-28	30	-11	31
42	-31	19	-17	31
27	-19	6	-22	31
5	6	-9	-27	31
-27	-4	-11	-20	31
-82	-21	-4	-30	31
-87	-52	-15	-64	31
-67	-49	-12	-52	31
-37	16	36	91	31
-75	32	50	145	31
-72	22	20	93	31
-37	43	26	67	31
-62	26	-2	54	31
37	-47	-10	1	31
102	-99	21	-9	31
52	-111	17	-13	31
62	-14	36	-31	31
23	160	21	-20	31
34	218	-10	-36	31
94	164	-31	-26	31
12	43	-58	-14	31
-99	-51	-44	-3	31
-128	-40	-10	-10	31
-101	-12	43	-29	31
-91	9	49	-14	31
-39	31	30	9	31
0	51	20	13	31
12	56	4	14	31
66	3	-21	11	31
96	-57	-46	-12	31
121	-56	-1	-25	31
107	-30	-7	-16	31
101	-37	-5	-12	31
124	-39	17	-64	31
92	-40	-11	-54	31
37	-36	-11	-10	31
-13	-23	-9	-11	31
-54	-2	15	59	31
-59	-2	16	79	31
-26	-89	15	26	31
-64	-151	45	21	31
-49	-109	31	16	31
-55	-14	-2	14	31
-139	90	-35	11	31
-48	131	-60	-14	31
-18	71	-32	-15	31
-21	102	7	0	31
67	157	3	-10	31
95	86	-9	6	31
19	76	15	68	31
33	48	-5	42	31
66	-17	-34	-34	31
1	-4	12	-10	31
47	-25	15	2	31
23	-36	12	-6	31
-35	-12	18	20	31
-89	-20	-4	19	31
-153	-10	9	35	31
-68	-16	17	21	31
-1	-34	27	7	31
-43	-26	19	19	31
-29	-40	-3	10	31
59	-57	12	-15	31
72	-49	38	-8	31
52	-51	27	24	31
54	-36	4	6	31
113	-2	-2	-16	31
96	-7	-9	-19	31
11	41	-6	-16	31
-11	112	-16	-2	31
-15	72	-47	20	31
-15	67	-39	46	31
-71	112	-9	34	31
-104	77	-12	23	31
-99	11	1	17	31
-59	-44	25	-3	31
-42	-26	21	-19	31
-42	-17	14	-31	31
29	-32	22	-30	31
50	-24	22	-17	31
64	-39	-1	17	31
89	-37	11	38	31
105	-54	2	21	31
101	-48	-8	39	31
76	-2	0	-15	31
52	46	5	-71	31
17	82	14	-15	31
-17	-2	6	15	31
-45	-82	29	67	31
-48	-82	24	64	31
-100	-61	4	17	31
-108	19	14	13	31
-52	79	25	-4	31
-57	76	14	-36	31
-29	31	-7	-77	31
26	3	-4	-91	31
49	-4	-24	-54	31
44	-27	-31	51	31
27	-14	1	86	31
29	19	20	105	31
42	37	12	106	31
89	32	20	29	31
89	-21	26	9	31
-10	-40	24	1	31
-71	1	19	6	31
-37	42	-9	-29	31
-32	61	-2	-34	31
-98	23	22	-64	31
-117	4	31	-107	31
-96	1	2	-24	31
-48	-1	-22	-12	31
22	7	-23	-5	31
121	-22	-11	17	31
114	-26	1	-14	31
8	-24	5	-16	31
81	-21	24	44	31
66	11	9	71	31
27	23	-2	1	31
52	38	2	7	31
10	35	3	6	31
26	4	-3	-9	31
-45	2	15	-14	31
-75	12	34	-34	31
-107	-12	-2	-5	31
-138	-31	37	23	31
-89	-51	44	36	31
-55	-86	-10	17	31
-12	-31	-14	17	31
-12	96	-8	9	31
16	156	-1	-19	31
34	89	-47	-17	31
59	-7	-41	-4	31
44	-41	8	12	31
-2	-62	9	26	31
105	-54	10	44	31
158	2	14	14	31
115	76	16	-10	31
81	111	10	6	31
43	80	-9	-3	31
-41	26	-34	18	31
-122	-16	-16	17	31
-101	-42	14	25	31
-92	-69	28	49	31
-74	-62	36	7	31
-41	-39	21	-8	31
-2	-19	11	-27	31
42	-15	6	-18	31
54	-66	-6	-5	31
101	-46	-23	0	31
129	44	-51	11	31
122	124	-52	21	31
83	172	-4	33	31
32	-7	29	-27	31
-3	-186	55	-33	31
-49	-161	65	13	31
-67	-88	39	37	31
-78	39	18	19	31
-102	124	25	5	31
-91	145	36	37	31
-64	61	-1	-11	31
-61	-49	-34	-7	31
-27	-31	-22	-17	31
21	2	-2	-34	31
69	19	-7	4	31
94	36	-2	-14	31
93	64	-3	20	31
107	3	-27	28	31
76	-48	-11	-4	31
31	-17	15	-9	31
-4	6	5	-31	31
-49	82	1	-9	31
-99	54	9	15	31
-68	-7	-3	37	31
-68	21	0	77	31
-157	-5	-4	45	31
-156	-21	2	29	31
-116	-34	25	14	31
-48	-48	41	0	31
-27	-40	32	9	31
62	-47	-11	-7	31
126	-24	-16	1	31
92	-21	-26	-15	31
161	-35	-41	-2	31
133	-27	6	43	31
104	-11	55	24	31
66	14	62	-19	31
2	27	51	8	31
-35	28	18	9	31
-106	39	-1	16	31
-88	37	-28	34	31
-91	14	-39	19	31
-96	20	-26	33	31
-97	25	-67	-21	31
-87	27	-59	-35	31
-37	10	-15	-69	31
34	-44	16	-98	31
61	-59	18	-21	31
-31	-34	17	2	31
92	30	42	27	31
255	63	9	2	31
167	49	14	-11	31
115	80	41	39	31
96	64	10	92	31
24	24	5	112	31
-32	-8	10	46	31
-72	-51	2	27	31
-80	-22	25	10	31
-59	24	17	-11	31
-47	29	2	-36	31
-91	9	21	-71	31
-102	-7	-22	-43	31
-36	-19	-40	-4	31
29	9	0	6	31
74	71	1	-16	31
87	41	-6	-9	31
81	-8	-16	2	31
46	-1	-10	1	31
6	3	6	21	31
-4	19	4	12	31
29	-13	-4	-8	31
-15	-73	-2	-37	31
-117	-77	18	-61	31
-90	-51	24	-6	31
-101	12	17	42	31
-113	8	10	-13	31
-83	-89	5	-32	31
-50	-106	1	24	31
74	-24	14	59	31
154	111	45	75	31
99	223	26	21	31
24	168	-58	-41	31
38	63	-51	-20	31
61	39	15	7	31
81	-5	22	4	31
15	-57	-6	-36	31
30	-77	-31	-41	31
186	-63	-6	-8	31
6	-22	4	4	31
-174	9	-11	29	31
-52	22	10	55	31
-102	34	56	66	31
-99	24	62	57	31
9	-21	24	9	31
14	-39	16	-49	31
51	-36	2	-46	31
55	-44	-4	-7	31
97	-56	8	32	31
117	-32	16	46	31
69	-12	13	-4	31
89	-1	-13	12	31
75	76	-27	36	31
34	121	-17	22	31
16	75	1	14	31
-29	24	4	1	31
-74	4	13	11	31
-92	-23	15	-7	31
-74	-39	-4	-32	31
-82	-36	3	-27	31
-122	-24	8	2	31
-95	6	12	-4	31
-31	11	14	-39	31
6	-26	-7	-28	31
26	-34	-2	-22	31
49	-14	-2	-33	31
59	-1	-55	-33	31
64	1	-69	5	31
42	-18	-34	82	31
37	16	10	132	31
42	44	27	52	31
-6	17	54	-54	31
-37	-1	83	12	31
-85	-35	52	47	31
-105	-11	46	25	31
-106	37	26	65	31
-117	4	16	18	31
-68	-37	18	2	31
-29	-27	13	2	31
14	36	22	-19	31
47	85	1	-2	31
52	30	-31	-14	31
70	-34	-51	1	31
97	-10	-39	-3	31
117	2	-31	-8	31
122	-8	-19	-7	31
114	-9	6	-6	31
70	-10	49	-1	31
21	13	89	4	31
-36	57	55	14	31
-130	51	9	7	31
-184	62	-12	22	31
-152	62	-6	14	31
-107	12	-1	-6	31
-80	16	-20	-21	31
-27	-7	-16	-9	31
14	-11	-12	6	31
76	-22	-22	-18	31
155	-66	0	-13	31
205	-84	19	-14	31
240	-74	6	-11	31
202	-7	21	-2	31
137	54	20	-2	31
8	82	1	24	31
-72	16	10	58	31
-40	-7	7	52	31
-68	2	-6	-7	31
-96	-9	-7	-45	31
-67	14	-2	-12	31
-79	-24	-14	3	31
-84	-12	-14	6	31
-95	4	-4	29	31
-137	-27	6	12	31
-40	-45	3	-13	31
32	-54	-11	-41	31
37	-32	12	-18	31
102	12	22	24	31
91	65	17	19	31
69	32	-18	-6	31
19	-3	-44	-51	31
-22	-29	-34	-40	31
-14	-42	-36	34	31
-74	29	-9	72	31
-121	102	2	44	31
-133	131	23	17	31
-126	97	43	24	31
-116	39	26	27	31
-76	-4	26	57	31
-11	-25	13	91	31
25	-19	-3	8	31
58	-29	-32	-61	31
109	-57	-27	-52	31
131	-46	29	-83	31
125	-21	44	-112	31
141	-25	42	-66	31
113	-9	27	9	31
102	-19	-18	-14	31
108	-38	-9	-31	31
36	-21	2	7	31
-56	-2	-1	26	31
-101	25	16	59	31
-76	36	-6	96	31
-127	21	-24	91	31
-174	-7	-39	29	31
-9	-23	-31	15	31
48	-14	38	9	31
-41	-6	72	-7	31
49	6	27	5	31
125	56	32	-37	31
142	81	45	-61	31
114	44	15	29	31
60	21	6	46	31
57	-32	-18	-34	31
2	-60	-30	-16	31
4	-31	-34	-6	31
-36	-37	-17	11	31
-79	-36	-27	31	31
-118	-27	-57	6	31
-226	-37	-33	28	31
-137	-10	27	26	31
-30	74	79	17	31
2	209	34	9	31
39	242	19	16	31
32	94	13	5	31
54	-21	-31	-43	31
64	-68	-11	11	31
69	-57	19	36	31
81	7	27	31	31
95	-1	3	46	31
9	-61	-27	13	31
-46	-51	-24	7	31
-14	-14	-7	-26	31
-49	44	3	-36	31
-64	112	4	-24	31
-51	57	2	-17	31
-54	16	-1	-12	31
-57	-15	-7	-15	31
-43	-32	2	-3	31
-36	-11	21	-7	31
-26	-6	4	-11	31
1	10	-19	-2	31
67	-29	-6	62	31
107	-36	21	19	31
78	-42	14	-101	31
95	-52	7	4	31
82	-18	12	56	31
27	-14	9	26	31
8	0	29	55	31
31	-12	30	18	31
2	-34	26	23	31
-61	-31	27	22	31
-56	-28	26	26	31
-68	-23	20	21	31
-78	4	20	10	31
-97	34	24	7	31
-77	18	7	-14	31
-9	-2	-17	-14	31
29	-8	-19	3	31
38	32	12	24	31
1	32	1	1	31
33	-19	-14	1	31
91	-25	0	1	31
57	-39	41	-19	31
10	16	98	-17	31
-41	57	52	-4	31
-110	42	-14	-7	31
-114	47	-40	-13	31
-107	14	-59	29	31
-95	8	-58	37	31
-36	-31	-51	48	31
-27	-54	-13	2	31
-37	-31	4	-34	31
-12	-9	-2	5	31
47	48	17	-7	31
109	41	27	-13	31
124	26	11	-19	31
128	12	-12	-3	31
125	-34	-19	4	31
126	-6	-21	2	31
96	-2	-22	37	31
23	-79	-15	64	31
-23	-94	3	54	31
-21	-46	6	19	31
25	33	25	10	31
-57	178	42	-29	31
-188	198	1	-65	31
-132	42	-44	-34	31
-91	4	-54	-2	31
-34	1	-31	-27	31
-2	-51	-14	-4	31
-122	-58	24	14	31
-12	-31	74	-10	31
111	48	59	6	31
63	84	11	0	31
64	81	-9	14	31
72	13	4	14	31
112	-57	16	-6	31
104	-59	2	-12	31
118	-22	0	16	31
118	64	21	31	31
18	34	36	29	31
-31	-3	34	26	31
-74	17	9	-11	31
-74	-31	-19	-8	31
-22	-29	-7	-5	31
-27	-21	-4	1	31
-25	-18	-20	7	31
19	-6	4	-1	31
19	-37	7	0	31
48	-34	18	-4	31
146	-33	30	-1	31
137	-39	7	-6	31
67	-27	26	42	31
25	-19	44	69	31
-31	27	32	18	31
-75	78	17	11	31
-131	54	12	1	31
-112	55	4	3	31
-65	64	6	22	31
-107	2	-9	0	31
-101	-5	-45	-20	31
-26	-5	-36	-19	31
39	-4	-5	-3	31
74	4	0	-49	31
86	-19	-23	-37	31
93	-9	-19	56	31
78	0	8	22	31
104	14	26	3	31
97	28	7	6	31
51	14	-18	21	31
22	-9	0	66	31
-45	-41	-6	26	31
-62	-60	-17	5	31
-79	-27	-5	32	31
-122	12	22	27	31
-183	-9	11	-2	31
-198	-52	0	-41	31
-72	-17	18	-51	31
69	64	-1	-6	31
89	48	-23	-19	31
52	51	-9	8	31
92	74	44	26	31
91	24	64	22	31
106	17	32	44	31
115	18	21	25	31
-14	1	17	17	31
-37	-29	11	4	31
32	-51	-11	10	31
-27	-32	-14	28	31
-66	-11	29	-3	31
-86	15	26	-3	31
-107	-11	19	52	31
-87	-32	18	29	31
-71	30	8	11	31
5	51	-12	-2	31
16	31	-71	-34	31
41	26	-65	-38	31
97	34	-32	-54	31
66	51	-27	-27	31
40	31	-31	-8	31
61	-11	-49	-14	31
75	-4	-18	9	31
47	13	44	27	31
6	-10	56	12	31
-31	-18	30	-7	31
-40	-27	16	-10	31
-38	-31	8	-9	31
-37	-17	2	21	31
-47	5	11	44	31
-48	38	-7	-25	31
-30	16	-22	-58	31
-12	-32	-6	-16	31
16	-79	6	-9	31
74	-126	6	-15	31
97	-125	14	-15	31
16	-32	26	36	31
-27	73	15	69	31
1	72	-17	-21	31
41	48	-27	-69	31
42	47	-16	22	31
-24	34	29	71	31
-75	54	74	34	31
-116	60	61	28	31
-61	35	36	16	31
39	12	6	13	31
-52	-9	-6	1	31
-100	-30	-12	-12	31
-61	-38	-15	3	31
-92	-19	12	-36	31
8	-12	31	-37	31
97	6	19	24	31
131	35	21	24	31
134	34	11	46	31
113	26	-14	42	31
127	6	-14	5	31
98	-6	-35	-11	31
30	4	-11	-40	31
-32	2	21	-7	31
-26	-28	-3	2	31
-103	-62	32	7	31
-102	-53	57	17	31
-67	-17	28	-12	31
-142	35	4	-19	31
-94	88	-21	-17	31
-32	78	-32	-3	31
19	49	-4	-3	31
57	26	22	-5	31
96	-7	34	4	31
139	-4	25	17	31
118	-6	-11	9	31
110	-2	-16	-13	31
94	2	-14	-9	31
74	-4	14	-1	31
39	16	16	3	31
6	-12	4	21	31
-26	-34	-4	31	31
-76	-32	-24	27	31
-72	-77	-17	19	31
-70	-60	-19	0	31
-119	-12	2	-29	31
-119	-11	18	-37	31
-44	16	25	-39	31
-23	42	16	-47	31
-23	67	-12	-29	31
41	60	-7	37	31
81	74	28	111	31
59	76	42	52	31
74	24	12	-9	31
79	83	19	41	31
35	63	7	29	31
-6	6	-21	57	31
-86	-9	-36	28	31
-129	-67	-61	-10	31
-167	-14	-31	-1	31
-204	-14	-20	-57	31
-198	-39	-17	-16	31
-172	-13	-17	2	31
-87	-34	-37	15	31
-22	-24	-30	24	31
39	-25	-22	-3	31
132	-14	-15	17	31
168	-13	-7	12	31
157	-32	7	-14	31
146	-55	13	-32	31
109	-59	6	-32	31
67	-6	19	8	31
52	52	23	11	31
34	70	14	3	31
19	21	27	35	31
-42	30	34	60	31
-104	21	42	36	31
-46	-10	53	-38	31
-52	8	39	-26	31
-57	-11	40	-1	31
-15	-11	46	-9	31
-57	-51	34	10	31
-57	-90	34	-2	31
-20	-94	0	-7	31
64	-85	-40	-1	31
99	10	-35	31	31
145	90	-41	17	31
225	116	-45	-17	31
79	79	-27	12	31
-54	21	6	0	31
9	44	90	-22	31
12	58	109	-2	31
-57	106	34	-14	31
-64	106	18	7	31
-86	29	32	52	31
-109	26	22	47	31
-62	-9	-6	6	31
-40	-19	-38	-21	31
-30	-14	-39	-48	31
16	-33	-24	-9	31
83	-24	-6	90	31
136	-52	11	19	31
133	-67	21	-56	31
112	-46	10	-2	31
87	0	0	-14	31
62	37	7	5	31
39	11	2	14	31
-6	-71	13	5	31
-54	-97	16	11	31
-67	-65	14	-1	31
-69	-16	19	17	31
-82	69	17	-2	31
-74	67	14	-6	31
-64	16	-2	-6	31
-60	37	-1	2	31
-20	102	-1	12	31
32	103	1	0	31
83	24	0	17	31
123	-19	7	15	31
130	-28	32	35	31
114	-40	12	77	31
72	-16	-14	76	31
30	-4	-32	7	31
-4	-32	-38	-32	31
-32	-32	-29	2	31
-44	-21	-9	26	31
-72	2	37	24	31
-82	25	49	-3	31
-59	14	36	-17	31
-72	-10	1	-17	31
-38	-29	-16	2	31
-9	-18	1	16	31
14	-14	-1	6	31
96	9	11	7	31
106	49	-4	-6	31
107	32	-11	-31	31
101	-12	-5	-44	31
65	-14	-3	-17	31
47	-12	6	7	31
18	-27	4	12	31
-8	-10	13	-2	31
-57	19	13	-3	31
-98	44	3	-3	31
-126	34	1	-71	31
-139	-7	4	-49	31
-121	-39	1	17	31
-74	-49	-7	11	31
-51	-19	-9	-1	31
-39	27	-2	4	31
31	14	0	26	31
52	-149	-16	29	31
46	-252	-24	27	31
80	-149	-35	15	31
88	34	-22	18	31
26	229	-1	11	31
22	284	-19	-6	31
29	186	-33	-12	31
-89	71	-37	10	31
-96	32	-30	111	31
-138	60	11	57	31
-195	66	50	-54	31
-102	42	73	-47	31
-108	6	81	-57	31
-70	-34	58	-39	31
-12	-31	2	-15	31
59	2	-45	20	31
187	-10	-39	57	31
191	-22	-45	79	31
177	6	-36	106	31
159	12	11	58	31
116	8	27	6	31
117	-29	17	-9	31
65	-69	21	-49	31
-9	-46	14	-58	31
-39	12	-7	-44	31
-48	41	-14	-40	31
-67	8	-32	-9	31
-116	-2	-27	7	31
-88	-21	-22	-4	31
-76	-32	-38	-9	31
-119	-31	-9	-6	31
-85	-34	21	4	31
-26	-1	6	-4	31
74	-14	-7	-25	31
146	-16	-3	-31	31
152	-11	-1	-14	31
184	-18	-5	-10	31
152	-3	2	-3	31
59	-6	18	10	31
-26	16	26	12	31
-35	42	29	19	31
-43	37	34	36	31
-69	1	29	31	31
-61	0	28	-3	31
-84	11	41	-6	31
-87	2	49	-10	31
-42	26	56	-2	31
-1	22	44	42	31
9	15	19	78	31
47	14	11	92	31
73	9	11	61	31
57	16	-4	9	31
87	7	-16	-27	31
109	-9	-6	12	31
62	-21	6	36	31
31	-11	-5	27	31
21	7	-16	29	31
-39	9	-7	2	31
-78	9	-9	6	31
-97	6	-11	6	31
-111	-14	1	6	31
-106	-18	10	6	31
-73	9	15	6	31
-36	50	4	21	31
-9	62	-3	-5	31
16	21	-9	-31	31
31	7	-5	-6	31
56	-4	-1	5	31
81	-38	-6	-7	31
98	-56	4	-11	31
85	-85	24	-12	31
56	-137	45	5	31
16	-183	26	-1	31
-12	-142	5	27	31
-31	28	21	56	31
-61	192	10	14	31
-61	178	-29	8	31
-120	132	-24	14	31
-157	117	-19	10	31
-62	51	-34	1	31
3	67	-6	-76	31
-29	52	-12	-112	31
21	25	-34	-73	31
16	59	8	-47	31
-41	71	74	26	31
135	101	97	86	31
181	29	59	76	31
139	-1	9	61	31
114	6	-26	48	31
26	-36	3	5	31
19	-31	29	-12	31
-62	-50	16	27	31
-120	-42	47	-22	31
-112	-61	56	-86	31
-124	-64	21	-29	31
-83	-35	3	27	31
-22	-46	2	1	31
30	-36	-12	-19	31
63	-45	-22	-8	31
79	-31	-24	-15	31
96	0	-37	-14	31
83	9	-43	-7	31
73	25	-23	-4	31
82	18	0	3	31
52	4	4	7	31
17	6	7	17	31
-8	2	7	20	31
-49	-4	17	21	31
-82	-21	19	31	31
-87	-26	7	31	31
-87	-24	-5	-22	31
-86	-67	-16	-6	31
-58	-67	-12	26	31
-21	-39	-11	-6	31
12	-23	-6	6	31
37	-22	11	-22	31
66	-105	6	-24	31
84	-102	-13	-9	31
94	18	2	34	31
93	115	32	87	31
69	140	9	61	31
49	106	-27	37	31
21	136	-37	31	31
-36	122	-81	7	31
-144	22	-140	-42	31
-181	-31	-129	-2	31
-73	-99	-59	24	31
-72	-64	-2	-11	31
-139	74	75	-16	31
-70	149	138	-24	31
-51	139	127	0	31
-79	62	91	14	31
-31	20	53	5	31
-5	-10	20	-15	31
77	-24	18	-35	31
205	-23	64	-46	31
173	-26	75	11	31
76	0	36	44	31
36	-16	11	40	31
73	-23	2	76	31
64	-19	-12	17	31
-36	-22	-11	-11	31
-66	-13	-8	4	31
-92	-39	8	8	31
-94	-59	7	8	31
-40	-61	1	-5	31
-2	-46	28	-3	31
26	-1	30	-14	31
46	52	20	-18	31
85	48	-12	-31	31
105	2	-22	21	31
109	-5	-16	33	31
111	-46	-22	6	31
88	-66	-6	22	31
57	-7	-7	-4	31
14	26	2	-9	31
-26	27	-3	-9	31
-61	18	-15	-8	31
-77	6	-7	-3	31
-81	-13	-9	12	31
-82	7	-2	29	31
-77	19	2	38	31
-67	-22	-5	56	31
-54	-29	-14	20	31
-21	-4	-16	-27	31
30	14	-16	-8	31
43	31	-6	27	31
31	9	-14	14	31
49	-33	-13	53	31
59	-23	17	94	31
32	1	8	67	31
9	46	7	21	31
-14	101	4	-60	31
-36	77	-6	-54	31
-59	-7	-9	-57	31
-75	-61	-30	-54	31
-75	-52	-12	-9	31
-78	-4	-1	-20	31
-65	81	17	-16	31
-5	99	24	-43	31
46	37	-4	-40	31
81	19	-16	4	31
146	20	-12	29	31
144	39	10	46	31
124	37	13	59	31
34	5	26	47	31
-37	-9	26	13	31
48	-13	12	29	31
24	12	16	53	31
-27	-37	11	61	31
-46	-133	9	46	31
-71	-185	2	-56	31
-46	-189	27	-81	31
-69	-91	38	-16	31
-94	26	13	-48	31
-90	86	15	-44	31
-52	192	22	-41	31
-17	252	-26	-54	31
62	104	-70	-32	31
62	-8	-33	-32	31
-10	3	-15	-17	31
118	-11	-11	-45	31
170	36	9	-21	31
101	44	14	25	31
26	-6	9	39	31
-26	-16	4	54	31
-44	-26	-1	34	31
-110	-2	-26	17	31
-42	9	10	12	31
-25	4	72	7	31
-107	9	91	6	31
-117	-17	71	12	31
-91	-56	23	21	31
-52	-52	-6	19	31
14	-38	-7	14	31
57	-47	-4	7	31
59	-35	-11	-7	31
74	-29	-35	-12	31
116	-21	-41	-9	31
139	-16	-18	-4	31
77	-21	13	1	31
28	-22	26	2	31
-11	-39	29	16	31
-30	-11	18	26	31
-29	15	-19	41	31
-74	48	1	24	31
-91	111	9	0	31
-92	104	-2	27	31
-91	72	26	-11	31
-83	18	19	-28	31
-37	-3	-6	-31	31
21	14	-47	-21	31
50	-12	-53	21	31
71	-24	-39	-4	31
87	-17	-18	46	31
172	-2	19	100	31
197	-3	16	64	31
46	-21	26	14	31
-32	-31	34	-4	31
9	-26	16	1	31
-36	-12	-4	-19	31
-65	24	9	-22	31
-62	61	50	16	31
-107	24	51	41	31
-62	-99	25	-27	31
-44	-199	6	-58	31
-63	-164	-25	-48	31
-36	-16	-23	-44	31
-2	179	-17	-7	31
72	253	-41	-3	31
89	204	-28	33	31
90	137	10	66	31
106	34	19	52	31
87	1	4	61	31
57	1	11	64	31
7	-4	16	-31	31
12	1	11	-46	31
31	-24	29	-5	31
-15	-42	29	-27	31
-41	-76	13	24	31
-62	-91	20	44	31
-112	-55	28	29	31
-96	7	14	-34	31
-18	65	-4	-59	31
9	40	-17	-63	31
42	9	-36	-66	31
63	11	-22	42	31
30	-6	14	54	31
64	2	26	56	31
61	6	17	46	31
46	1	9	9	31
4	-1	11	26	31
-69	-14	6	41	31
-64	-17	5	42	31
-85	-13	19	31	31
-94	-3	9	36	31
-126	19	4	-1	31
-119	1	-2	-9	31
-61	-32	-26	-14	31
-41	0	-26	-32	31
-44	-5	-23	-7	31
-43	-37	-25	-6	31
57	-22	-1	9	31
99	-12	10	6	31
65	25	-4	-7	31
95	34	10	-4	31
122	14	17	-2	31
92	16	8	9	31
62	5	17	6	31
51	9	9	7	31
11	11	23	-9	31
-33	15	42	-20	31
-58	17	12	-14	31
-79	-2	-10	-26	31
-87	-9	1	-9	31
-83	-7	17	3	31
-119	-19	-6	14	31
-77	-51	-7	11	31
-2	-47	29	-1	31
-15	-18	24	17	31
44	12	11	14	31
126	22	-15	-1	31
153	-2	-42	-7	31
89	-14	-34	14	31
4	-7	21	17	31
38	49	54	-4	31
-12	77	31	-31	31
-34	52	46	-46	31
-13	49	21	6	31
-60	29	-21	51	31
-37	2	-7	39	31
-22	-56	-21	43	31
-13	-89	-23	52	31
-22	-81	18	12	31
16	-81	34	13	31
61	-47	-7	21	31
66	-11	-14	17	31
90	66	21	4	31
72	182	31	-37	31
74	162	21	-26	31
62	67	-7	-15	31
17	80	-5	-16	31
-27	47	-4	6	31
-45	17	-50	9	31
-88	13	-55	-35	31
-137	-111	-37	-7	31
-97	-169	-27	-16	31
-61	-180	-24	-34	31
-101	-119	-42	37	31
-125	4	-18	1	31
-72	94	29	-34	31
-36	164	48	3	31
39	65	27	14	31
102	21	9	-17	31
88	9	17	-3	31
106	-25	34	16	31
57	62	57	37	31
22	54	29	8	31
15	29	1	-19	31
23	39	-8	25	31
40	7	-21	-41	31
-14	4	-14	-27	31
-34	-22	4	24	31
-49	-56	21	28	31
-64	-77	6	49	31
-23	-106	16	-18	31
-37	-91	22	-11	31
-79	-20	21	16	31
42	51	1	-7	31
131	109	-37	16	31
98	94	-31	3	31
152	37	-4	1	31
174	34	10	7	31
81	9	1	8	31
17	1	12	24	31
21	-2	-5	18	31
15	2	-5	26	31
-61	37	7	6	31
-129	16	-4	-21	31
-149	2	27	-14	31
-107	-2	21	-5	31
-21	-9	22	9	31
-50	6	20	8	31
-39	-12	-5	8	31
73	-17	4	9	31
81	-8	4	4	31
150	-14	10	3	31
209	-17	13	-2	31
181	-11	8	4	31
137	-6	2	12	31
87	2	-11	29	31
105	13	-7	61	31
31	-8	1	76	31
-86	-54	-22	17	31
-141	-49	-31	-62	31
-114	0	7	-22	31
-120	39	30	52	31
-120	100	17	45	31
-52	81	-2	32	31
-46	7	3	27	31
-7	9	19	-19	31
3	-2	22	-61	31
49	-2	23	-67	31
111	-12	6	-82	31
88	-40	1	-37	31
82	-11	4	62	31
66	-9	-4	88	31
49	2	-6	49	31
12	14	-14	25	31
-16	9	-11	8	31
-59	9	-5	-27	31
-112	-18	-3	-16	31
-126	-50	31	19	31
-144	-113	27	7	31
-142	-122	-7	-3	31
-124	-38	17	34	31
-50	104	24	26	31
28	175	-26	-5	31
27	74	-78	7	31
46	23	-70	8	31
49	4	-13	-19	31
65	6	14	-28	31
75	43	49	-4	31
12	8	77	7	31
-15	4	61	22	31
0	-26	56	27	31
12	-47	46	-8	31
-58	-22	36	12	31
-120	42	44	57	31
-105	129	21	-6	31
-103	56	-14	-26	31
-51	-20	-16	4	31
-12	-55	-12	-29	31
12	-101	-32	-9	31
54	-60	-23	3	31
81	-21	4	5	31
130	-11	3	-40	31
136	-59	-6	-29	31
128	-38	-7	48	31
122	37	5	47	31
97	102	21	67	31
47	119	9	12	31
2	7	-11	-4	31
-21	13	3	-23	31
-57	-2	10	-39	31
-69	-31	7	22	31
-91	7	-2	11	31
-96	-46	1	11	31
-58	-62	4	-6	31
-36	-58	-24	12	31
-4	15	2	51	31
41	78	19	-5	31
83	54	-7	-35	31
100	13	-27	-12	31
106	-40	-12	1	31
104	-90	15	17	31
86	-162	10	-24	31
54	-172	15	-16	31
11	-104	19	13	31
-9	23	12	-31	31
-44	84	16	-22	31
-82	65	19	-21	31
-95	140	11	-4	31
-112	269	-13	19	31
-109	268	-66	17	31
-103	70	-121	9	31
-80	-34	-132	-19	31
-67	-33	-101	6	31
-11	-59	-39	31	31
110	-3	49	15	31
76	14	132	-11	31
-5	-17	134	-14	31
-11	-2	83	-3	31
-4	14	65	11	31
59	22	54	29	31
-1	-20	51	10	31
-42	-52	54	-2	31
-45	-28	42	-2	31
-66	-12	17	5	31
22	24	-6	24	31
-10	44	9	29	31
-12	12	30	17	31
-26	-10	42	-3	31
24	-10	27	-12	31
126	-12	-20	-22	31
96	-9	-38	-29	31
163	2	-41	-16	31
123	1	-44	2	31
111	-4	-34	-26	31
117	-6	-21	-9	31
66	-9	-5	28	31
67	-16	-2	-3	31
19	-9	-1	2	31
-1	7	-7	-16	31
-62	15	-26	-11	31
-92	9	-17	0	31
-89	-6	-7	4	31
-79	-14	-11	27	31
-73	-17	-11	31	31
-67	-11	-14	61	31
-31	-6	-21	38	31
-10	-9	-26	-9	31
36	-11	-21	-29	31
44	-9	-16	-23	31
60	-4	-6	10	31
69	-9	9	30	31
49	-11	1	63	31
43	-12	-11	52	31
21	-9	1	7	31
4	9	40	7	31
-42	14	48	9	31
-72	11	3	4	31
-76	5	-9	-27	31
-99	-10	1	-32	31
-94	-6	-3	8	31
-64	3	1	21	31
-44	1	9	52	31
-26	-11	0	51	31
7	-31	-1	4	31
41	-82	22	-67	31
51	-145	16	-86	31
61	-136	17	-23	31
65	-34	31	37	31
45	103	32	67	31
22	164	14	21	31
-2	132	-18	26	31
-42	91	-14	48	31
-92	117	11	57	31
-107	122	21	52	31
-114	61	-16	1	31
-116	34	-52	6	31
-89	7	-53	-35	31
-50	-27	-61	-24	31
-14	-41	-18	2	31
12	-42	85	-62	31
57	-20	125	-36	31
89	10	45	17	31
102	-5	-19	-46	31
96	-34	-39	-25	31
67	-41	-34	10	31
48	-64	19	-26	31
11	-49	48	-11	31
-42	-43	37	-59	31
-39	-94	-10	-42	31
-21	-61	-54	22	31
-187	49	-59	67	31
-174	53	-21	81	31
9	92	82	64	31
-56	151	92	39	31
-71	58	1	-4	31
-96	54	0	16	31
-51	42	48	32	31
64	-6	57	32	31
84	11	39	-1	31
72	-19	32	27	31
129	-24	17	12	31
237	-34	10	-8	31
163	-10	44	23	31
142	12	24	-9	31
38	-17	-26	16	31
-51	-16	-36	-4	31
-8	-8	-35	-11	31
-37	7	-17	-21	31
-34	7	7	-34	31
-67	-54	9	-3	31
-66	-79	4	6	31
-37	-78	-19	30	31
-42	-76	-43	22	31
43	54	-38	29	31
127	41	-19	8	31
106	4	37	-9	31
89	166	57	4	31
70	154	-3	-6	31
34	61	-30	18	31
14	-31	-21	31	31
-37	-52	-20	11	31
-35	72	2	11	31
-26	82	24	-12	31
-52	6	35	-31	31
-61	-20	27	-1	31
-81	-16	9	-22	31
-76	6	16	-18	31
-44	50	14	-16	31
-13	19	2	-29	31
30	-24	-7	-7	31
47	-22	-18	-2	31
51	-37	-14	26	31
89	-32	-4	41	31
71	-27	4	48	31
11	-26	24	19	31
-14	-14	36	-34	31
-37	-10	47	-81	31
-27	-29	54	-82	31
7	-14	34	-29	31
11	45	-10	-4	31
6	67	-22	56	31
-30	35	2	118	31
-94	-19	-3	71	31
-88	-18	-16	25	31
26	-21	-36	29	31
11	-17	-39	-6	31
-8	36	-3	4	31
72	16	6	23	31
4	-20	12	62	31
16	4	1	88	31
45	14	-12	-7	31
44	-2	-18	-21	31
35	7	5	-3	31
-47	13	32	-23	31
-52	-7	2	-31	31
-2	-12	20	-51	31
-32	1	7	-30	31
-103	16	-10	-13	31
-41	10	13	2	31
-27	-43	-11	4	31
-47	-68	-13	-8	31
-43	-51	-36	13	31
29	-14	-35	25	31
103	76	15	22	31
78	106	32	11	31
90	59	49	7	31
92	64	84	9	31
95	46	79	-2	31
45	4	47	-8	31
-4	-12	14	-16	31
-12	-35	-1	-6	31
-36	-26	7	20	31
-88	-14	-1	16	31
-106	8	1	-17	31
-63	34	-4	-27	31
-50	25	-9	-32	31
-35	-10	-17	-49	31
-37	-46	-25	-21	31
-14	-47	-10	61	31
48	-14	-12	88	31
72	31	-28	21	31
81	23	-55	-20	31
91	14	-54	-22	31
97	22	-19	37	31
89	-1	10	67	31
64	-51	22	-7	31
23	-120	28	9	31
19	-121	27	-4	31
4	-142	-9	-57	31
-45	-157	-26	-20	31
-77	-32	-27	17	31
-99	167	-6	39	31
-92	321	19	16	31
-69	222	-20	-1	31
-46	22	-56	11	31
-2	-17	-51	27	31
11	-3	19	-9	31
-32	50	83	-17	31
11	56	72	23	31
100	-1	56	2	31
119	12	-1	-2	31
73	-11	-32	-4	31
-17	-24	-21	6	31
-21	-25	-9	14	31
-46	-46	5	16	31
-116	-47	-3	11	31
-106	-60	-5	25	31
-116	-27	-2	48	31
-141	-21	-8	-16	31
-122	-39	5	-26	31
-82	-8	26	14	31
-70	6	19	-1	31
59	18	7	16	31
140	16	-4	36	31
-20	-1	-2	-9	31
19	27	12	-41	31
71	16	24	-10	31
64	1	24	-1	31
127	14	11	12	31
26	9	5	49	31
-26	23	26	52	31
-41	36	42	31	31
-52	84	38	16	31
-46	60	13	5	31
-57	-47	-20	2	31
-32	-69	-21	36	31
7	-101	-22	42	31
29	-119	-17	15	31
45	-68	-7	-7	31
118	21	-13	-4	31
139	134	-17	-7	31
127	113	-16	-26	31
111	37	21	-19	31
104	26	37	7	31
105	-1	25	44	31
103	-11	0	47	31
99	-30	9	-1	31
0	-50	28	-21	31
-69	-27	9	-26	31
-34	-3	15	3	31
-77	41	11	45	31
-77	41	11	45	31
-76	41	11	45	31
-75	41	11	45	31
-74	40	11	45	31
-73	40	11	44	31
-72	39	11	44	31
-71	39	10	44	31
-70	39	10	43	31
-69	38	10	43	31
-68	38	10	43	31
-67	37	10	42	31
-66	37	9	42	31
-65	36	9	42	31
-64	36	9	42	31
-63	36	9	41	31
-62	35	9	41	31
-60	35	9	41	31
-59	34	8	40	31
-58	34	8	40	31
-57	33	8	40	31
-56	33	8	39	31
-55	33	8	39	31
-54	32	7	39	31
-53	32	7	39	31
-52	31	7	38	31
-51	31	7	38	31
-50	30	7	38	31
-49	30	7	37	31
-48	30	6	37	31
-47	29	6	37	31
-46	29	6	36	31
-45	28	6	36	31
-43	28	6	36	31
-42	27	5	36	31
-41	27	5	35	31
-40	27	5	35	31
-39	26	5	35	31
-38	26	5	34	31
-37	25	5	34	31
-36	25	4	34	31
-35	24	4	33	31
-34	24	4	33	31
-33	24	4	33	31
-32	23	4	33	31
-31	23	3	32	31
-30	22	3	32	31
-29	22	3	32	31
-28	21	3	31	31
-26	21	3	31	31
-25	21	3	31	31
-24	20	2	30	31
-23	20	2	30	31
-22	19	2	30	31
-21	19	2	30	31
-20	18	2	29	31
-19	18	1	29	31
-18	18	1	29	31
-17	17	1	28	31
-16	17	1	28	31
-15	16	1	28	31
-14	16	1	27	31
-13	15	0	27	31
-12	15	0	27	31
-10	15	0	27	31
-9	14	0	26	31
-8	14	0	26	31
-7	13	-1	26	31
-6	13	-1	25	31
-5	12	-1	25	31
-4	12	-1	25	31
-3	12	-1	24	31
-2	11	-1	24	31
-1	11	-2	24	31
0	10	-2	24	31
1	10	-2	23	31
2	9	-2	23	31
3	9	-2	23	31
4	9	-3	22	31
5	8	-3	22	31
7	8	-3	22	31
8	7	-3	21	31
9	7	-3	21	31
10	6	-3	21	31
11	6	-4	21	31
12	6	-4	20	31
13	5	-4	20	31
14	5	-4	20	31
15	4	-4	19	31
16	4	-5	19	31
17	3	-5	19	31
18	3	-5	18	31
19	3	-5	18	31
20	2	-5	18	31
21	2	-5	18	31
22	1	-6	17	31
24	1	-6	17	31
25	0	-6	17	31
26	0	-6	16	31
27	0	-6	16	31
28	-1	-7	16	31
29	-1	-7	15	31
30	-2	-7	15	31
31	-2	-7	15	31
32	-3	-7	15	31
33	-3	-7	14	31
34	-3	-8	14	31
35	-4	-8	14	31
36	-4	-8	13	31
37	-5	-8	13	31
38	-5	-8	13	31
40	-6	-9	12	31
48	-109	-33	1	31
-16	-95	19	-12	31
-57	-7	52	-18	31
-63	105	35	-16	31
-114	168	20	-56	31
-97	138	-13	-61	31
-85	102	-22	11	31
-36	36	5	77	31
19	-37	2	86	31
19	-56	2	2	31
33	-28	-13	-35	31
58	-42	-17	-19	31
91	-56	-10	-25	31
117	-11	-31	14	31
112	79	-10	25	31
56	131	-1	41	31
19	54	-20	35	31
71	11	-22	11	31
67	4	13	37	31
-25	14	61	16	31
-34	14	39	-56	31
-99	-29	11	-39	31
-126	-61	-6	-31	31
-7	-83	-12	-86	31
8	-27	-5	-36	31
34	29	-23	-22	31
63	43	-19	-20	31
67	-6	-4	12	31
81	-52	17	27	31
82	-22	14	24	31
81	-20	15	-22	31
46	12	25	12	31
27	13	23	16	31
-7	-24	22	3	31
-12	7	15	9	31
-26	69	11	-6	31
-73	78	-2	-6	31
-86	5	2	-17	31
-98	-42	-7	47	31
-110	-7	-12	69	31
-99	9	-13	18	31
-69	-9	-24	45	31
-25	-1	-20	10	31
46	-3	-16	-16	31
102	-14	-9	16	31
106	-4	13	9	31
151	-10	25	12	31
184	-26	-2	39	31
61	-19	-7	71	31
16	-12	3	32	31
5	-26	2	-7	31
-41	-81	6	-6	31
-15	-121	7	-8	31
-66	-67	7	5	31
-71	20	4	-15	31
-79	124	7	-16	31
-89	117	-4	5	31
-54	-48	-7	-4	31
-42	-60	-10	10	31
12	1	-18	29	31
39	71	15	25	31
89	112	42	22	31
135	33	24	-50	31
122	20	8	-76	31
53	-30	27	-19	31
-11	-36	4	-4	31
72	7	-8	-7	31
97	7	14	-22	31
-24	39	5	-27	31
-90	12	-12	-17	31
-117	-5	-31	-1	31
-117	-23	-41	-3	31
-91	-14	-28	26	31
-81	16	2	45	31
-49	-6	14	6	31
-32	-9	11	-23	31
-18	-36	22	-19	31
22	-57	-8	-1	31
85	-84	-41	17	31
117	-76	-33	59	31
56	29	-4	86	31
41	91	25	96	31
67	117	19	58	31
1	113	64	-7	31
-36	59	74	-16	31
-14	26	11	25	31
-57	16	22	67	31
-102	36	47	62	31
-112	49	46	36	31
-89	21	19	6	31
-50	5	9	-22	31
-26	11	13	-57	31
4	-6	5	-85	31
35	-54	-11	-95	31
94	-87	-27	-49	31
114	-60	-22	38	31
119	29	-15	42	31
115	108	11	41	31
82	74	15	39	31
61	-4	14	-8	31
27	-8	22	45	31
-2	-20	17	16	31
-44	-62	17	-52	31
-72	-69	17	14	31
-76	-51	13	-14	31
-86	-2	7	1	31
-91	35	8	9	31
-81	24	1	-21	31
-14	21	-7	-11	31
32	12	-13	-24	31
24	-14	4	-8	31
46	-54	-11	-24	31
100	-44	-41	10	31
106	17	12	27	31
80	72	37	16	31
8	91	6	11	31
-12	32	6	-6	31
32	-25	-1	1	31
-44	-46	-12	1	31
-52	-65	2	22	31
-64	-100	26	36	31
-89	-129	40	25	31
21	-86	35	14	31
12	43	6	21	31
9	227	-39	32	31
39	245	-46	3	31
60	34	-71	-25	31
116	-15	-77	-8	31
44	36	15	-2	31
22	-10	55	-14	31
38	-20	59	12	31
-47	-20	44	44	31
-30	-29	-19	21	31
27	-11	-8	-1	31
-8	93	11	-4	31
-21	36	27	-43	31
-47	-60	64	-22	31
-61	-16	56	-7	31
-65	2	40	-17	31
-110	57	9	-4	31
-116	-10	-21	-22	31
-17	-65	-19	-2	31
58	-32	-11	-1	31
24	1	-3	10	31
44	89	-1	2	31
71	71	-4	-23	31
82	23	-25	21	31
65	-5	-31	63	31
41	-51	-24	5	31
51	-66	-12	-45	31
54	-52	4	4	31
83	-28	-2	-4	31
14	-4	11	-11	31
-82	5	3	-19	31
-84	0	6	-41	31
-56	4	7	-12	31
-52	-8	-9	21	31
-44	-19	6	22	31
12	-26	5	7	31
36	-36	7	22	31
44	-27	7	38	31
59	-4	-1	59	31
66	6	-7	86	31
55	22	-17	87	31
45	40	-4	39	31
18	31	18	-1	31
-9	22	16	-22	31
-22	9	26	-36	31
-84	-4	34	-31	31
-157	-11	14	-36	31
-156	-10	17	-31	31
-97	3	17	-32	31
-142	31	18	-1	31
-142	66	29	51	31
-58	46	16	56	31
-34	14	-9	39	31
5	-12	-37	-1	31
37	-60	-17	-40	31
52	-57	12	-64	31
52	-57	12	-64	31
51	-57	12	-63	31
50	-56	12	-62	31
49	-56	12	-61	31
48	-55	12	-60	31
47	-54	12	-59	31
46	-54	12	-58	31
44	-53	12	-57	31
43	-53	12	-56	31
42	-52	12	-55	31
41	-51	12	-54	31
40	-51	12	-53	31
39	-50	12	-52	31
37	-50	12	-51	31
36	-49	12	-50	31
35	-48	12	-49	31
34	-48	12	-48	31
33	-47	12	-47	31
32	-47	12	-46	31
31	-46	12	-45	31
29	-45	12	-44	31
28	-45	12	-43	31
27	-44	13	-42	31
26	-44	13	-41	31
25	-43	13	-40	31
24	-42	13	-39	31
22	-42	13	-38	31
21	-41	13	-37	31
20	-41	13	-36	31
19	-40	13	-35	31
18	-39	13	-34	31
17	-39	13	-33	31
16	-38	13	-32	31
14	-38	13	-31	31
13	-37	13	-30	31
12	-36	13	-29	31
11	-36	13	-28	31
10	-35	13	-27	31
9	-35	13	-26	31
7	-34	13	-25	31
6	-33	13	-24	31
5	-33	13	-23	31
4	-32	13	-22	31
3	-32	13	-21	31
2	-31	14	-20	31
1	-30	14	-19	31
-1	-30	14	-18	31
-2	-29	14	-17	31
-3	-29	14	-16	31
-4	-28	14	-15	31
-5	-27	14	-14	31
-6	-27	14	-13	31
-8	-26	14	-12	31
-9	-26	14	-11	31
-10	-25	14	-10	31
-11	-24	14	-9	31
-12	-24	14	-8	31
-13	-23	14	-7	31
-14	-23	14	-6	31
-16	-22	14	-5	31
-17	-21	14	-4	31
-18	-21	14	-3	31
-19	-20	14	-2	31
-20	-20	14	-1	31
-21	-19	14	0	31
-23	-18	14	1	31
-24	-18	15	2	31
-25	-17	15	3	31
-26	-17	15	4	31
-27	-16	15	5	31
-28	-15	15	6	31
-29	-15	15	7	31
-31	-14	15	8	31
-32	-14	15	9	31
-33	-13	15	10	31
-34	-12	15	11	31
-35	-12	15	12	31
-36	-11	15	13	31
-38	-11	15	14	31
-39	-10	15	15	31
-40	-9	15	16	31
-41	-9	15	17	31
-42	-8	15	18	31
-43	-8	15	19	31
-44	-7	15	20	31
-46	-6	15	21	31
-47	-6	15	22	31
-48	-5	15	23	31
-49	-5	16	24	31
-50	-4	16	25	31
-51	-3	16	26	31
-53	-3	16	27	31
-54	-2	16	28	31
-55	-2	16	29	31
-56	-1	16	30	31
-57	0	16	31	31
-58	0	16	32	31
-59	1	16	33	31
-61	1	16	34	31
-62	2	16	35	31
-63	3	16	36	31
-64	3	16	37	31
-65	4	16	38	31
-66	4	16	39	31
-68	5	16	40	31
-69	6	16	41	31
-70	6	16	42	31
-71	7	16	43	31
-72	7	16	44	31
-73	8	16	45	31
-75	9	17	46	31
-65	-25	-10	11	31
-56	1	-24	-7	31
-50	14	-11	-10	31
-4	20	-3	-5	31
66	19	-18	2	31
85	-31	-25	12	31
76	-59	-21	11	31
84	-34	-17	4	31
51	8	14	4	31
-23	12	17	-7	31
-78	11	30	25	31
-14	-1	66	35	31
51	-42	64	-6	31
-92	-27	54	-32	31
-194	36	1	-56	31
-188	92	-9	-50	31
-165	57	-1	-19	31
-80	-41	-18	66	31
-49	-23	4	127	31
16	111	31	76	31
169	147	22	34	31
193	85	-17	0	31
139	62	21	-19	31
194	-1	33	10	31
136	-41	-31	-17	31
-7	-36	-21	-19	31
6	-69	-7	1	31
-18	-49	-21	-13	31
-41	-21	-19	-9	31
-56	-14	-2	-11	31
-105	-5	21	-1	31
-72	-12	13	-27	31
-97	-15	11	-25	31
-95	-13	22	-16	31
-21	-9	11	-42	31
64	-24	-2	-39	31
29	-30	-19	-33	31
-63	-21	-12	-9	31
1	-18	1	-25	31
50	-20	11	-8	31
58	-19	23	49	31
81	-4	18	77	31
71	3	11	104	31
11	8	17	99	31
-44	12	42	93	31
-54	13	32	1	31
-49	12	9	-57	31
-65	8	5	3	31
-79	6	1	-15	31
-60	-1	4	-16	31
-16	-4	-6	9	31
39	-7	2	-28	31
84	-17	1	-6	31
117	-24	-2	17	31
117	-35	1	6	31
111	-21	-10	27	31
98	7	-7	27	31
77	16	-7	-12	31
92	5	-2	-51	31
58	-11	4	-9	31
-10	-10	11	-2	31
-42	-11	27	-16	31
-69	-6	34	-11	31
-122	37	30	-12	31
-141	76	17	7	31
-129	50	6	6	31
-109	39	18	26	31
-80	33	-1	24	31
-59	-14	-30	21	31
-14	-22	-21	14	31
50	-5	-11	0	31
74	9	5	-1	31
60	-5	4	-17	31
57	-40	-6	-14	31
66	-52	-11	6	31
47	-57	-12	56	31
7	-16	6	25	31
-21	54	4	-12	31
-50	38	-24	39	31
-66	-23	-35	22	31
-66	31	27	27	31
-82	175	42	23	31
-111	230	-20	-9	31
-84	127	-20	2	31
-2	-8	-11	0	31
-6	-92	-12	-7	31
6	-116	-9	-28	31
53	-49	-37	-14	31
71	39	-64	-7	31
97	51	-54	22	31
67	39	6	71	31
65	74	49	21	31
74	41	37	-16	31
51	-14	19	9	31
-9	-8	58	4	31
-54	-17	98	-2	31
-46	-36	77	-2	31
-92	-69	35	-7	31
-104	-87	8	2	31
-57	-40	9	0	31
-20	41	34	2	31
-16	106	22	-8	31
11	95	-1	-13	31
55	21	12	-11	31
67	-24	-14	-19	31
131	-36	-35	-21	31
191	-5	-42	-37	31
181	25	-54	-25	31
126	-15	-34	-6	31
74	-22	-16	-10	31
36	-12	-12	-13	31
6	-17	-6	2	31
-32	-11	3	18	31
-92	-28	6	37	31
-112	-17	13	49	31
-115	-12	13	21	31
-99	-24	2	4	31
-101	-14	-4	-2	31
-116	-21	-5	6	31
-57	-9	13	11	31
53	9	-2	-17	31
102	16	-17	8	31
77	20	9	87	31
94	1	49	93	31
76	-2	51	3	31
44	4	17	-7	31
71	1	1	-12	31
-16	10	-18	-59	31
-93	0	27	-51	31
-81	-22	74	-42	31
-64	-30	54	-21	31
-49	-19	38	-5	31
-121	12	14	5	31
-99	24	-9	-7	31
-77	12	-19	-17	31
-1	-7	-31	-7	31
159	-16	-31	0	31
91	-12	-27	12	31
62	-39	-29	13	31
76	-86	-8	14	31
61	-102	11	27	31
60	-82	30	29	31
1	-11	37	21	31
7	97	17	33	31
-17	126	4	30	31
-89	74	2	12	31
-82	47	-2	5	31
-52	44	-17	11	31
-48	65	2	26	31
-41	15	6	-6	31
-34	-144	6	-27	31
5	-209	6	-6	31
34	-125	-14	1	31
40	51	-13	2	31
67	289	-31	16	31
81	285	-54	-24	31
91	55	-48	-62	31
77	7	-6	-7	31
14	-46	41	-7	31
-31	-97	36	6	31
-39	-37	19	42	31
-101	12	19	39	31
-177	67	23	54	31
-172	32	-17	57	31
-86	39	-42	37	31
-46	37	3	-42	31
-84	-40	-1	-70	31
-44	-56	-12	-16	31
-8	-81	19	47	31
1	-69	12	67	31
51	-34	-10	27	31
125	13	-1	11	31
110	69	19	31	31
52	54	25	46	31
102	42	32	7	31
124	67	44	-13	31
102	50	37	-7	31
43	4	11	-48	31
-14	-32	9	-36	31
-53	-90	3	-44	31
-67	-131	-5	-52	31
-52	-90	16	21	31
-37	-14	15	52	31
1	100	-2	1	31
41	165	-22	-38	31
31	80	-37	-4	31
20	-11	-24	17	31
166	-34	-27	16	31
142	-69	-20	9	31
-8	-78	51	28	31
62	6	62	22	31
65	18	10	-30	31
27	-68	7	-35	31
19	-117	7	-11	31
-31	-107	7	37	31
-59	-7	9	57	31
-104	132	0	21	31
-137	220	-24	-24	31
-149	147	-34	-32	31
-86	22	-10	10	31
-37	7	-16	-3	31
-36	-14	-16	10	31
11	-31	-9	52	31
45	-19	12	58	31
67	-12	28	8	31
101	0	11	-25	31
113	24	19	14	31
98	37	13	-15	31
59	5	19	0	31
9	4	31	14	31
4	5	31	-5	31
-44	2	36	-21	31
-99	-27	15	-7	31
-69	-101	19	49	31
-90	-104	36	55	31
-97	-32	15	22	31
-46	67	9	-10	31
5	74	-12	-16	31
21	42	-36	-39	31
26	45	-1	-32	31
81	14	35	-14	31
100	-11	30	-2	31
118	-62	-6	1	31
143	-29	-24	23	31
136	74	-35	32	31
71	142	-12	2	31
-42	132	2	-9	31
-75	34	-9	-24	31
-65	-4	7	-6	31
-27	-28	-31	-2	31
-52	-59	-27	34	31
-102	-45	19	102	31
-86	-22	23	68	31
-78	-15	54	16	31
-22	-34	41	12	31
17	-34	8	-12	31
12	-68	21	-7	31
45	-124	-10	-1	31
69	-96	-24	-11	31
51	2	6	25	31
55	133	-3	-14	31
59	184	-19	-21	31
31	121	2	25	31
-34	64	23	-5	31
-61	21	15	11	31
-20	-10	12	19	31
-46	-14	-2	-3	31
-108	-66	-31	-17	31
-116	-105	-25	-23	31
-77	-42	14	-18	31
-34	14	16	-33	31
-2	74	11	-11	31
8	91	-1	-16	31
-13	21	-39	-34	31
31	-14	-21	-28	31
152	-35	-11	-17	31
225	-29	-19	5	31
221	-6	10	30	31
186	-16	7	34	31
56	-22	-10	-4	31
-4	-17	9	-17	31
-15	-16	25	1	31
-112	-16	11	27	31
-83	6	2	53	31
-89	36	11	62	31
-111	38	17	54	31
-78	-12	23	6	31
-58	-89	21	-93	31
-10	-120	16	-98	31
6	-63	15	-29	31
34	60	11	-22	31
37	142	7	18	31
36	73	-2	26	31
36	19	-22	17	31
24	21	-20	4	31
25	-11	-1	-2	31
-9	-1	4	30	31
-83	-24	22	61	31
-37	-30	34	78	31
39	-18	22	16	31
-46	-11	11	10	31
-57	19	11	27	31
-12	21	19	36	31
-14	21	7	-5	31
-6	0	-6	-49	31
9	-26	4	-14	31
51	-46	19	-16	31
89	-62	24	14	31
99	-91	-22	16	31
87	-135	-74	12	31
67	-107	-59	31	31
32	54	-14	-1	31
-23	197	35	-11	31
-57	216	62	69	31
-26	195	59	60	31
-46	47	51	-14	31
-134	-75	34	20	31
-156	-57	0	-15	31
-157	-27	-21	-15	31
-137	90	-16	4	31
-36	192	-7	2	31
51	112	-2	6	31
64	-6	-8	-14	31
89	-27	29	5	31
151	-69	53	-27	31
159	-106	10	-28	31
115	-65	6	-6	31
105	15	40	20	31
83	79	44	54	31
28	64	1	72	31
-11	2	-32	50	31
-71	-63	-23	21	31
-97	-59	-25	-4	31
-112	-29	-15	-11	31
-179	-53	-16	5	31
-181	-91	2	-56	31
-77	-69	61	-54	31
-48	32	64	-59	31
-61	78	20	-40	31
37	29	-9	31	31
103	-41	-39	47	31
122	-53	-42	64	31
124	6	-14	23	31
29	25	-17	-3	31
2	111	-31	-25	31
40	147	-2	-22	31
23	39	17	-6	31
25	23	7	-1	31
-65	-5	17	24	31
-57	-16	14	4	31
21	-12	4	-9	31
-25	-31	2	-20	31
-9	-16	-2	-25	31
-22	-37	7	-17	31
1	-32	8	7	31
27	-22	9	47	31
66	-1	1	74	31
105	4	-4	48	31
61	-52	-16	-21	31
72	-110	-29	14	31
67	-112	-16	30	31
65	-29	-15	19	31
23	74	-17	19	31
-36	123	-16	-21	31
-58	89	-7	-28	31
-57	54	1	-41	31
-54	16	8	5	31
-129	-7	11	21	31
-132	1	1	1	31
-57	-14	-3	34	31
-44	-12	-12	71	31
-16	6	1	67	31
77	36	10	17	31
102	41	6	-1	31
94	26	30	-29	31
115	9	21	15	31
98	-14	-2	29	31
71	-27	-16	14	31
25	-37	0	-2	31
9	-19	37	-73	31
7	-10	12	-71	31
-21	-19	-22	-77	31
-64	-12	-11	-51	31
-116	0	24	-27	31
-112	22	44	-17	31
-107	41	41	10	31
-96	69	21	39	31
-55	46	-21	59	31
-27	-22	5	40	31
6	-47	28	20	31
21	-27	2	7	31
42	11	19	14	31
94	29	17	0	31
104	1	9	-2	31
67	-32	16	7	31
50	-52	-22	14	31
73	-49	-27	42	31
44	-5	36	42	31
-6	-16	43	38	31
-44	-57	-1	31	31
-106	14	32	18	31
-122	51	32	-10	31
-79	-32	-19	-51	31
-37	-72	-19	-56	31
-42	-116	-7	-66	31
-1	-132	11	-43	31
63	-36	11	33	31
92	59	12	39	31
79	102	5	24	31
61	49	-34	4	31
88	6	-34	-11	31
53	130	34	48	31
20	190	23	66	31
-4	122	-71	66	31
-91	61	-20	37	31
-127	55	42	77	31
-127	91	9	87	31
-127	74	-1	-81	31
-100	23	-16	-162	31
-21	-40	-17	-64	31
-29	-79	-16	49	31
-79	-69	-43	51	31
96	-16	-23	1	31
146	42	18	-10	31
64	31	27	-14	31
181	6	14	42	31
179	-8	-1	51	31
131	-17	-1	-41	31
117	-16	-5	-24	31
63	-25	10	-4	31
7	-5	17	-65	31
-101	4	-1	-112	31
-109	-26	6	-78	31
-137	-48	7	-6	31
-155	-56	-13	-41	31
-116	-24	-34	-51	31
-131	52	-26	-19	31
-98	62	3	-19	31
-54	-52	34	7	31
-4	-102	74	49	31
-2	-52	71	54	31
10	-6	31	0	31
82	67	41	21	31
86	60	6	52	31
86	-4	-34	57	31
77	-3	-3	60	31
44	19	-6	46	31
9	26	9	45	31
-34	48	6	18	31
-63	78	-17	31	31
-91	28	26	17	31
-64	14	52	-25	31
-1	-4	11	-29	31
-9	-57	6	-20	31
-23	-61	-15	18	31
61	-74	-42	0	31
133	-8	-9	-12	31
137	35	13	21	31
119	-12	26	-2	31
119	-3	12	-14	31
116	9	2	-1	31
65	8	-4	27	31
27	-18	-14	13	31
2	-96	-1	-4	31
-5	-123	7	0	31
-17	-155	15	-33	31
-66	-150	-9	-34	31
-92	-11	-32	-10	31
-70	97	-17	22	31
-37	236	-22	28	31
-21	291	-27	19	31
7	147	-12	-6	31
28	86	1	-12	31
69	64	-2	-9	31
89	46	-6	-7	31
109	47	9	7	31
149	20	-6	11	31
127	-18	-16	29	31
72	-39	9	22	31
6	-23	5	18	31
-44	-46	3	24	31
-78	-42	18	19	31
-101	-31	15	15	31
-124	-30	13	14	31
-127	-14	12	32	31
-83	-25	9	49	31
-82	-19	7	26	31
-154	-29	11	4	31
-84	-27	36	22	31
50	-15	22	-12	31
57	-4	4	-21	31
71	19	17	18	31
16	-1	16	-2	31
26	-9	28	46	31
34	-5	34	95	31
-70	-25	41	41	31
-116	-21	39	-7	31
-167	-4	0	-17	31
-89	-7	-17	-57	31
-30	38	-4	-36	31
-102	69	-9	-13	31
-101	-5	-30	-32	31
-79	-36	-15	7	31
-52	-17	12	-2	31
-8	-29	11	4	31
38	-14	-4	-1	31
87	2	-7	-2	31
112	23	-2	6	31
136	41	-2	-4	31
176	27	-20	14	31
176	1	-41	-38	31
141	-57	-31	-64	31
62	-94	-2	-17	31
-42	-101	40	-7	31
-64	-97	55	-5	31
-66	-14	42	16	31
-72	87	74	21	31
-67	216	74	14	31
-86	255	9	-19	31
-85	27	-21	-26	31
-70	-95	-10	23	31
-52	-46	-12	-8	31
2	-38	-12	-75	31
71	16	-1	-56	31
125	49	-24	-5	31
159	27	-39	89	31
106	-35	-9	146	31
41	-2	-5	173	31
31	82	-28	169	31
-40	76	-4	71	31
-93	46	34	-1	31
-72	-13	17	-41	31
-76	-2	-21	-36	31
-79	19	-36	-44	31
-86	8	-4	-20	31
-34	16	31	-12	31
65	-26	26	-37	31
66	-45	15	-14	31
36	-84	7	-9	31
67	-131	5	27	31
90	-89	2	31	31
71	2	-6	44	31
67	109	6	6	31
71	86	30	-62	31
81	-88	37	-76	31
26	-132	15	-70	31
24	-46	-3	7	31
56	36	2	23	31
-21	96	26	-2	31
-46	95	42	1	31
-72	127	27	-24	31
-88	132	2	-60	31
-102	65	-20	-44	31
-73	2	-27	16	31
45	-25	-11	12	31
45	-21	-12	-14	31
58	-31	-22	36	31
104	-10	-16	76	31
91	-22	-19	39	31
64	-30	-15	16	31
79	-12	-8	19	31
142	-16	4	25	31
60	4	16	27	31
-69	-4	22	19	31
-50	-1	18	16	31
-79	9	8	7	31
-131	7	0	2	31
-99	9	-4	-7	31
-112	-3	4	17	31
-113	-7	1	36	31
-75	-17	4	-3	31
-12	-17	7	-8	31
37	-10	8	-1	31
63	-12	4	-9	31
77	-11	-9	26	31
77	-4	-7	46	31
90	-2	-2	-8	31
73	-14	2	-17	31
52	-7	-16	14	31
18	1	-25	-2	31
-27	5	-3	13	31
-67	9	8	31	31
-86	-1	34	16	31
-102	2	51	2	31
-110	11	37	13	31
-82	28	13	-10	31
-61	36	-9	-53	31
-30	22	-11	11	31
0	4	7	1	31
53	-19	16	-12	31
104	-5	12	14	31
106	23	-7	-9	31
113	4	-44	7	31
91	-29	-29	1	31
74	-36	-16	17	31
52	-8	-6	9	31
7	37	21	16	31
-26	38	6	15	31
-63	4	14	-31	31
-82	16	61	-24	31
-95	57	72	-3	31
-84	62	66	18	31
-94	5	29	-6	31
-81	-10	-22	-10	31
-21	-2	-9	-7	31
7	13	14	-12	31
30	60	-3	20	31
49	-4	4	39	31
129	-40	32	40	31
154	-30	6	18	31
127	-28	-29	24	31
128	8	-42	24	31
32	16	-56	11	31
-19	30	-29	17	31
-49	-2	-2	-9	31
-105	-44	19	6	31
-86	-77	27	34	31
-47	-104	6	26	31
-126	-53	14	8	31
-174	19	20	-36	31
-74	-9	-7	-37	31
-44	-9	-17	-23	31
18	109	-11	-14	31
73	104	-43	-16	31
73	87	-29	-4	31
104	71	29	24	31
61	6	44	-29	31
54	11	32	-34	31
68	1	-12	9	31
28	2	-34	15	31
-30	19	-17	22	31
-29	15	-18	-32	31
-21	10	-44	-84	31
-76	12	-34	-48	31
-97	2	3	12	31
-49	-42	49	34	31
-12	-52	72	31	31
-5	-37	46	59	31
60	-14	13	58	31
90	11	-12	11	31
100	-46	-19	-13	31
111	-105	3	-16	31
91	-77	22	4	31
79	-27	17	66	31
47	54	21	106	31
14	79	26	66	31
-80	23	17	19	31
-107	-11	-18	-22	31
-4	59	-28	-36	31
-29	172	-25	-22	31
-144	144	-39	-32	31
-146	33	-18	-15	31
-87	-54	-7	5	31
-52	-124	14	-28	31
12	-135	32	-30	31
49	-26	42	64	31
110	111	54	16	31
139	149	29	-19	31
52	65	-10	8	31
35	-29	1	-23	31
-6	-14	29	48	31
-56	-16	11	-24	31
-33	-14	2	-68	31
17	1	6	52	31
26	-19	22	73	31
-25	-10	27	16	31
-14	-37	15	-39	31
-16	-47	-2	-3	31
-9	-38	-10	29	31
12	-31	15	20	31
14	-15	9	-9	31
49	-31	-21	-44	31
88	-33	-34	-49	31
103	-21	-19	-46	31
75	-6	-17	-37	31
64	15	-17	3	31
73	35	-6	61	31
56	21	-10	38	31
39	1	2	49	31
15	22	3	74	31
-45	16	2	-15	31
-86	16	21	-9	31
-94	19	21	41	31
-117	-56	2	-9	31
-120	-78	-9	-5	31
-123	-32	18	-15	31
-82	16	37	-12	31
7	87	23	20	31
64	39	-11	22	31
110	-23	-32	37	31
118	5	-21	16	31
134	6	-1	15	31
164	29	1	21	31
126	10	0	1	31
67	-7	28	-7	31
33	19	41	6	31
-19	24	34	16	31
-49	24	20	14	31
-76	-4	26	52	31
-157	-8	30	66	31
-138	-23	-8	13	31
-91	-27	-32	-25	31
-82	-16	-35	-16	31
-36	-21	-6	-42	31
-32	13	-8	-95	31
-10	22	9	-54	31
8	17	32	1	31
28	-31	-35	25	31
119	-43	-50	81	31
149	51	-21	41	31
97	97	3	-31	31
105	94	5	-54	31
86	61	23	-56	31
-34	11	88	-17	31
-104	-70	72	-17	31
-130	-114	21	-17	31
-111	-46	20	-2	31
-79	65	15	8	31
-87	204	-4	4	31
-85	204	-20	-4	31
-66	48	-20	16	31
-27	-54	15	16	31
30	-122	6	-2	31
116	-139	11	5	31
57	-96	46	14	31
-21	-11	32	24	31
54	91	27	24	31
30	74	21	9	31
12	72	8	27	31
-24	66	-5	49	31
-75	-44	-39	9	31
-39	-66	-44	-51	31
-39	-44	11	-28	31
-25	-62	43	9	31
-32	-56	32	26	31
-24	8	7	8	31
16	102	-16	-11	31
-7	107	-32	29	31
-26	40	-29	-1	31
26	12	-6	-7	31
31	-34	4	-11	31
42	-95	7	-35	31
123	-79	4	-6	31
104	-29	5	25	31
97	28	2	77	31
86	43	-22	46	31
6	54	-35	-9	31
-39	33	-28	0	31
-64	-6	-18	-27	31
-77	29	-14	-46	31
-82	36	0	-27	31
-65	9	14	7	31
-33	-20	-6	43	31
23	-32	-2	35	31
44	-4	28	15	31
38	11	26	-51	31
59	-9	2	-51	31
94	-57	-12	-4	31
96	-131	15	-24	31
52	-153	28	57	31
47	-37	31	88	31
6	39	42	39	31
-12	16	16	20	31
-15	76	-18	16	31
-76	145	-11	55	31
-115	209	17	42	31
-131	197	-32	1	31
-109	47	-54	-29	31
-66	-16	-3	-67	31
-11	-51	2	-61	31
-16	-51	12	-11	31
-9	-27	21	2	31
58	-46	26	29	31
118	-32	24	59	31
166	-54	19	37	31
132	-43	40	16	31
94	-16	39	7	31
82	2	11	4	31
46	12	-9	-10	31
-6	-19	-8	-11	31
-76	-11	6	-7	31
-153	-7	16	24	31
-209	-11	13	25	31
-143	-41	9	2	31
-11	-59	6	42	31
-37	-26	-2	6	31
-66	-6	1	-17	31
27	41	-3	8	31
65	63	-6	15	31
87	32	-24	-11	31
87	21	-57	-78	31
84	21	-39	-41	31
106	31	2	-6	31
54	23	27	-21	31
21	4	54	-12	31
19	10	51	-2	31
-12	-2	26	15	31
-70	-19	12	46	31
-87	-21	-7	71	31
-57	-19	-17	46	31
-55	-52	-16	14	31
-92	-84	6	9	31
-79	-67	14	-11	31
-10	-28	-11	5	31
33	120	1	29	31
69	207	-7	-2	31
108	124	-27	-22	31
157	63	-9	-12	31
98	-11	21	9	31
69	-30	37	-2	31
74	2	16	-19	31
-20	2	2	8	31
5	-1	17	-11	31
-26	-27	24	-4	31
-114	-11	22	4	31
-145	-7	27	3	31
-132	-3	19	23	31
-83	4	0	16	31
-100	9	2	16	31
-55	30	7	2	31
-23	14	14	2	31
46	6	10	-16	31
140	-11	7	-23	31
136	-22	7	8	31
145	-27	-15	22	31
156	-8	-25	17	31
146	6	-28	4	31
109	1	-18	46	31
53	5	-9	73	31
39	-4	3	39	31
-8	2	44	-4	31
-140	3	64	22	31
-172	15	60	39	31
-124	5	15	-39	31
-139	-12	-27	-52	31
-103	2	-13	7	31
-63	-12	-14	-25	31
-74	-41	-29	-16	31
-67	-67	-40	12	31
-1	-32	-37	-31	31
62	17	-31	9	31
53	21	-39	-11	31
59	12	-32	-18	31
42	-22	-16	1	31
-1	-24	24	10	31
-32	-27	35	49	31
-56	-51	-6	39	31
-56	50	21	31	31
-68	150	57	8	31
-81	105	14	15	31
-69	61	-4	10	31
-40	-3	2	-6	31
-41	-39	-9	-19	31
-31	6	-9	-32	31
27	17	-6	-26	31
92	35	-7	-25	31
140	52	6	-12	31
144	107	2	-34	31
151	97	-24	-17	31
132	-9	-12	68	31
87	-84	17	100	31
58	-93	24	19	31
32	22	26	5	31
-31	80	-12	53	31
-125	87	-12	46	31
-94	47	15	18	31
-83	-29	4	-72	31
-161	-54	6	-63	31
-104	-83	2	-22	31
-102	-37	17	6	31
-81	-35	-6	29	31
-11	-24	-15	12	31
29	-5	18	11	31
151	-29	-2	-16	31
199	4	1	-7	31
244	-8	30	-7	31
215	-11	41	21	31
152	-1	13	-26	31
132	-12	1	-65	31
59	-5	7	54	31
21	-10	-11	61	31
-105	-8	-18	20	31
-180	-16	-12	22	31
-112	-17	-3	14	31
-82	-15	27	-6	31
-47	-17	41	-15	31
-7	-6	11	-5	31
19	-6	6	-9	31
71	-2	12	8	31
102	-4	-3	31	31
117	-4	-27	59	31
132	4	-22	44	31
119	12	-1	22	31
80	26	-5	7	31
26	14	-7	-16	31
-9	13	-3	4	31
-51	12	12	2	31
-101	-60	19	-4	31
-119	-124	17	0	31
-130	-79	36	14	31
-110	56	49	22	31
-76	180	29	1	31
-61	154	3	12	31
-57	60	-13	23	31
-6	16	-27	-6	31
62	-57	-15	-14	31
86	-68	11	-16	31
99	-37	15	-20	31
48	-24	16	-19	31
44	8	9	-24	31
73	9	2	-21	31
36	3	13	-34	31
33	-26	9	-7	31
-16	-16	20	66	31
-84	23	22	76	31
-104	22	1	0	31
-89	64	-3	-30	31
-91	68	2	-7	31
-97	27	15	2	31
-37	31	15	-3	31
-1	21	-7	-16	31
21	-6	-8	-1	31
42	-33	2	4	31
76	-49	9	-3	31
106	-46	-1	-7	31
121	-56	-3	-6	31
124	-96	9	-4	31
101	-142	0	-9	31
61	-94	12	-4	31
-2	47	34	2	31
-52	191	19	6	31
-89	199	-22	11	31
-101	86	-29	33	31
-104	-21	1	5	31
-103	-104	-19	-36	31
-76	-44	-64	-26	31
-14	81	-65	7	31
21	147	-22	36	31
29	81	-3	-19	31
82	-2	12	-15	31
88	24	59	17	31
24	-7	59	4	31
3	0	24	-4	31
19	-10	-14	-7	31
27	-29	-27	37	31
130	-16	7	67	31
69	-37	37	-13	31
-154	-24	25	-88	31
-99	-14	26	9	31
-103	18	21	10	31
-110	9	-23	-1	31
-60	4	-18	45	31
-106	28	-2	28	31
-22	22	-25	50	31
-13	9	-25	11	31
24	-17	4	13	31
84	-14	22	8	31
82	-17	37	-3	31
91	-12	32	32	31
78	4	19	23	31
73	4	31	-21	31
31	13	20	-15	31
-11	-2	14	7	31
-52	-54	6	-41	31
-63	-66	4	-33	31
-76	-17	17	-19	31
-98	-4	-4	-9	31
-99	-21	-25	-11	31
-90	-52	-7	-19	31
-33	-66	5	21	31
0	-19	-16	-9	31
21	34	-24	4	31
57	82	4	69	31
91	42	-1	17	31
123	19	-22	0	31
122	101	1	15	31
128	87	2	-16	31
116	76	-8	-2	31
33	41	-6	12	31
-16	-16	3	32	31
-23	-5	48	8	31
-41	-2	51	1	31
-69	-5	11	12	31
-137	-37	-14	6	31
-137	-37	-19	32	31
-101	-24	-2	75	31
-80	-10	6	61	31
-36	14	-11	5	31
1	-11	-20	24	31
37	17	9	23	31
77	32	6	-4	31
129	19	-8	-22	31
122	34	-7	-24	31
87	14	-16	-31	31
52	14	5	-53	31
15	12	16	-32	31
-27	8	12	8	31
-109	17	6	31	31
-117	7	1	13	31
-97	1	16	5	31
-111	-25	31	0	31
-83	-40	19	-14	31
-79	-38	9	-5	31
-66	-34	10	-6	31
-8	5	9	5	31
64	22	14	6	31
124	-15	-17	20	31
141	-16	-31	44	31
142	-7	-35	-5	31
114	-36	-36	-20	31
76	-31	-14	9	31
49	-26	-10	-3	31
-9	-21	4	1	31
-44	11	10	-14	31
-46	26	7	21	31
-72	27	-2	69	31
-82	34	29	19	31
-67	51	52	6	31
-33	50	17	11	31
61	37	6	-6	31
103	11	-19	0	31
57	-14	-27	-1	31
79	-14	3	16	31
137	-7	19	17	31
87	5	11	2	31
59	-1	-4	-3	31
59	-3	-7	-3	31
7	1	2	12	31
-29	-6	15	8	31
-93	-11	22	6	31
-131	-14	32	2	31
-136	4	25	-7	31
-126	9	11	-2	31
-97	7	-4	-2	31
-87	14	6	-5	31
-98	11	20	-11	31
-119	11	19	-4	31
-55	-2	23	10	31
75	-6	0	18	31
102	12	-13	13	31
91	29	-16	-2	31
116	21	-22	-15	31
46	4	-13	-14	31
7	9	-12	-16	31
37	7	2	-23	31
53	32	28	11	31
42	54	32	45	31
-67	11	7	27	31
-83	-15	15	13	31
-71	-6	14	7	31
-83	10	-20	4	31
-46	34	-16	35	31
-88	24	-4	19	31
-17	4	21	-2	31
53	5	26	9	31
15	-2	5	-29	31
82	-17	15	-9	31
57	-24	23	34	31
64	-34	31	42	31
82	-64	31	74	31
6	-89	20	57	31
14	-74	44	67	31
-17	-19	43	26	31
2	29	-2	-56	31
11	15	-2	2	31
-33	40	10	-4	31
-34	66	-16	-39	31
-43	-7	-24	-59	31
-22	16	-4	-86	31
12	1	12	13	31
43	-46	17	69	31
72	-5	11	29	31
119	-4	6	33	31
106	96	-2	19	31
89	151	-9	-21	31
121	76	2	-5	31
52	19	-11	-28	31
-19	-31	-34	-47	31
-51	-29	-46	-37	31
-126	21	-56	15	31
-134	65	-38	22	31
-89	50	16	-22	31
-97	53	25	-24	31
-129	22	-1	-39	31
-62	-38	4	-19	31
42	-37	-13	-12	31
52	-47	-19	42	31
46	-69	-5	47	31
71	-82	23	2	31
72	-67	34	7	31
65	-56	27	1	31
106	-33	36	19	31
126	-5	26	14	31
59	31	49	-36	31
5	77	46	-27	31
-66	77	-7	-2	31
-137	41	-32	-21	31
-118	-12	-29	-2	31
-129	-16	-36	4	31
-101	-21	-28	14	31
-52	-45	-21	27	31
-66	-41	6	24	31
-49	-68	39	27	31
-7	-127	14	13	31
64	-188	15	16	31
114	-152	38	15	31
114	6	48	22	31
132	220	35	44	31
160	295	-22	29	31
119	137	-61	-3	31
22	50	-14	-12	31
-47	46	26	-12	31
-3	14	16	-7	31
-33	46	17	-6	31
-180	67	0	-4	31
-141	53	-19	17	31
-159	2	7	31	31
-126	-67	22	20	31
16	-90	6	-5	31
63	-72	-14	-13	31
152	-34	-19	-16	31
130	-18	7	-21	31
133	-2	9	-26	31
112	7	7	-15	31
69	-31	17	16	31
98	-56	-4	34	31
61	-28	2	45	31
23	21	4	23	31
-42	47	-13	2	31
-60	31	-22	-11	31
-55	21	-6	-15	31
-85	66	32	-17	31
-94	58	19	-30	31
-79	14	16	13	31
-82	-16	16	45	31
-47	-56	-12	32	31
57	-54	-1	28	31
57	-24	4	27	31
42	31	6	27	31
84	78	-5	12	31
76	26	-24	-6	31
63	6	3	-9	31
68	14	19	-14	31
27	-12	9	-10	31
12	-8	2	-10	31
16	-19	16	-14	31
-49	-16	13	-5	31
-76	-1	1	2	31
-64	13	16	9	31
-86	5	13	11	31
-84	-31	-6	29	31
-65	-31	-21	76	31
-48	-31	-13	57	31
28	-27	3	-42	31
72	-22	0	-52	31
59	-24	10	-40	31
87	-16	22	-59	31
77	29	4	-20	31
69	68	-12	-9	31
65	86	-1	17	31
27	116	34	44	31
9	72	66	31	31
-29	33	54	40	31
-34	1	9	42	31
-74	-22	-9	14	31
-119	6	-17	1	31
-139	-4	-39	-6	31
-151	-17	-27	-20	31
-43	-64	-18	0	31
8	-91	14	-1	31
-22	-72	54	-5	31
39	-41	47	41	31
80	36	17	13	31
86	49	-4	-70	31
76	40	-17	-29	31
87	50	-20	9	31
97	64	-13	16	31
1	83	2	31	31
-34	81	13	26	31
-64	37	-34	19	31
-89	-37	-32	30	31
-126	-108	13	31	31
-174	-146	4	17	31
-77	-121	-13	20	31
-44	-26	-12	6	31
-12	160	17	13	31
-4	204	4	-7	31
39	50	-27	-27	31
131	-16	-10	-18	31
119	-26	-14	-21	31
160	-39	-17	-17	31
149	-41	15	-20	31
106	-53	-17	-28	31
72	-49	-21	-6	31
2	-35	22	52	31
-24	-19	50	63	31
-49	-6	62	6	31
-68	-3	44	-1	31
-79	11	66	83	31
-67	22	35	64	31
-56	64	2	-21	31
-116	116	22	-6	31
-133	67	5	-2	31
-33	18	-12	-16	31
27	7	-19	-12	31
61	-12	-14	-37	31
115	-14	-22	-16	31
121	-26	-1	1	31
138	-19	6	-6	31
106	-17	-3	11	31
64	-24	6	19	31
31	-15	-3	32	31
-39	-11	3	27	31
-94	-6	12	11	31
-130	-8	9	-4	31
-126	-4	7	-16	31
-90	0	5	-43	31
-68	-3	2	-56	31
-36	-4	8	-6	31
6	-1	6	32	31
17	7	-6	12	31
23	6	6	-8	31
67	-5	2	-11	31
125	-6	-2	1	31
94	-12	12	29	31
96	-17	1	23	31
111	-14	-14	-1	31
16	-9	-27	-1	31
46	-6	-20	1	31
33	-38	7	7	31
-27	-54	23	1	31
-13	-7	37	-8	31
-87	48	29	-2	31
-100	85	1	-8	31
-85	62	-6	-12	31
-59	-12	-1	6	31
-19	-70	-19	19	31
7	-69	-12	21	31
39	-8	22	37	31
30	35	15	59	31
36	74	-7	51	31
46	81	-16	3	31
63	47	-22	-5	31
56	89	6	0	31
31	142	48	-5	31
32	105	46	-17	31
14	37	16	-40	31
-25	-44	11	-7	31
-91	-113	11	18	31
-86	-117	5	23	31
-16	-96	0	15	31
5	-23	3	2	31
41	89	26	19	31
66	113	4	28	31
77	25	-42	-6	31
82	-19	-35	-29	31
79	-9	-4	-19	31
89	-59	14	-9	31
62	-79	12	25	31
32	-73	4	22	31
-9	-66	0	10	31
-39	11	-1	12	31
-60	47	-2	-19	31
-86	24	-4	-11	31
-115	81	20	16	31
-171	100	13	1	31
-136	-4	-14	-14	31
-92	-24	27	4	31
-29	-9	25	-8	31
12	0	-6	-23	31
-52	51	26	2	31
32	84	19	11	31
63	67	-15	-8	31
60	14	-24	-34	31
138	-18	-52	-3	31
112	-20	-2	37	31
73	-14	65	44	31
-12	-47	77	67	31
-11	-51	91	79	31
-63	-40	39	29	31
-176	-61	-27	-20	31
-122	-52	-37	-19	31
-67	-72	-12	-35	31
-67	-77	29	-19	31
-48	6	36	0	31
6	63	15	-4	31
11	101	1	1	31
46	104	-19	-37	31
54	34	-47	-60	31
28	29	-18	-21	31
57	30	7	40	31
72	31	-22	36	31
71	4	-16	17	31
-22	-22	-12	11	31
-66	-1	-6	-16	31
-50	-46	13	-1	31
-114	-58	11	-28	31
-64	-47	14	19	31
18	0	6	68	31
-43	74	13	27	31
-46	35	14	14	31
59	-46	12	-21	31
65	-55	0	16	31
71	-8	-19	53	31
116	78	-4	0	31
102	140	-8	-39	31
107	75	-18	-69	31
79	9	7	-68	31
53	-8	23	17	31
20	-19	9	63	31
-29	-3	3	46	31
-38	-5	7	36	31
-54	-4	6	36	31
-72	-4	24	0	31
-87	-8	38	-2	31
-93	-23	14	22	31
-82	-46	-21	-9	31
-71	-35	-31	7	31
-30	-28	-24	9	31
44	19	-14	19	31
89	36	-11	17	31
126	-15	-4	-1	31
116	-17	0	18	31
65	-31	19	2	31
74	10	39	1	31
62	84	26	-14	31
34	40	25	-22	31
25	6	-2	-6	31
0	17	-27	-3	31
-20	-1	-25	-3	31
-49	-29	-9	20	31
-80	-54	11	62	31
-101	-56	9	57	31
-90	-68	23	38	31
-73	-47	21	59	31
-55	0	36	37	31
7	-4	41	-42	31
108	18	-10	-52	31
152	7	-33	-18	31
96	10	-11	-27	31
97	90	2	-32	31
113	144	1	-9	31
93	172	5	-8	31
46	57	6	-9	31
41	-15	22	32	31
28	7	19	47	31
-122	-31	15	11	31
-109	-39	23	-9	31
-86	-71	-11	-11	31
-117	-71	-21	-27	31
-69	-52	-15	-28	31
-92	-3	-24	-8	31
-48	104	7	13	31
-10	101	1	7	31
31	1	-57	-12	31
81	-37	-45	0	31
98	-2	7	7	31
99	-8	34	9	31
72	-7	30	-10	31
103	-21	8	-17	31
54	-15	14	12	31
-20	-9	15	27	31
-45	-51	0	26	31
-67	-33	27	7	31
-84	-61	45	-35	31
-102	-78	9	-16	31
-75	-13	4	22	31
-44	26	29	12	31
-67	-4	16	19	31
-76	-61	6	8	31
9	-32	-1	0	31
54	64	-33	27	31
61	122	-49	92	31
97	38	-19	137	31
92	-31	11	82	31
68	-7	21	36	31
21	11	19	29	31
1	62	19	11	31
-9	49	9	-19	31
-37	4	-13	-54	31
-56	7	3	-54	31
-107	16	12	-27	31
-133	12	9	-37	31
-89	-6	6	-30	31
-15	-7	-11	37	31
18	7	-2	37	31
-4	6	-23	6	31
11	-2	-44	43	31
64	8	-28	36	31
86	-15	-2	-27	31
116	22	29	-47	31
127	74	22	-29	31
61	40	11	-9	31
-27	48	0	1	31
-64	10	11	1	31
-51	-22	29	-11	31
-71	-11	7	-15	31
-64	-31	17	-3	31
-49	1	-2	-8	31
-64	15	-21	-17	31
-53	18	-6	-12	31
-22	11	-9	23	31
22	-14	-10	69	31
44	-14	-1	54	31
61	-10	21	12	31
86	-22	3	-76	31
88	-47	-13	-66	31
35	-60	1	18	31
34	-72	14	-36	31
56	-20	36	1	31
-27	57	30	16	31
-46	69	4	-21	31
-38	49	-2	-21	31
-84	-4	6	-5	31
-70	-11	15	16	31
-69	-7	11	11	31
-77	-9	-2	22	31
-30	2	-24	6	31
49	-2	-24	16	31
46	52	-11	-17	31
21	59	-9	-25	31
109	14	11	5	31
106	5	13	-13	31
99	4	-11	-47	31
134	38	6	-9	31
87	7	17	57	31
63	-66	4	21	31
24	-47	9	27	31
-17	-2	17	34	31
-48	46	14	11	31
-79	54	-7	-2	31
-62	21	-16	2	31
-49	8	-24	23	31
18	4	-1	16	31
49	29	34	66	31
-114	36	12	56	31
-113	-48	-11	8	31
46	-109	16	-1	31
13	-104	12	-36	31
40	-84	-2	-26	31
41	-2	17	-13	31
57	57	16	-17	31
60	39	4	-19	31
-11	43	7	-7	31
24	62	40	29	31
-23	59	60	54	31
-28	47	52	53	31
-49	31	28	6	31
-59	-4	-7	-36	31
-50	-35	-12	-4	31
-116	-46	-16	18	31
-112	-51	-27	-26	31
-78	-37	-2	-19	31
11	-7	19	3	31
107	12	12	-16	31
160	-12	6	-15	31
169	-36	4	-21	31
130	6	3	7	31
98	79	-9	25	31
62	131	-22	18	31
11	105	-13	19	31
-21	19	41	6	31
-43	-39	33	-7	31
-60	-50	-16	-11	31
-71	14	6	3	31
-104	72	-2	-1	31
-91	59	-16	-1	31
-49	-4	-11	7	31
-11	-22	7	5	31
22	0	7	6	31
59	-32	-4	-9	31
88	-31	-6	-14	31
86	-38	-28	12	31
97	-36	-18	40	31
67	-18	-9	50	31
20	-16	22	46	31
-27	6	52	32	31
-54	-17	36	14	31
-91	-37	0	-14	31
-154	-70	-3	-16	31
-94	-64	22	-3	31
-57	9	24	1	31
-72	79	16	1	31
-82	109	-9	-2	31
-149	27	-7	16	31
-26	-44	2	9	31
89	-89	-4	8	31
49	-108	9	44	31
123	-52	15	41	31
149	36	21	6	31
147	117	16	-11	31
144	92	-1	-3	31
85	112	-9	6	31
54	79	-20	14	31
3	-32	-7	18	31
-1	-42	13	-31	31
-27	-52	24	-56	31
-76	19	26	-53	31
-88	84	21	-79	31
-97	94	10	-23	31
-102	57	-19	45	31
-112	-7	-34	81	31
-62	-9	-31	47	31
-16	-37	-21	-14	31
17	-17	-15	24	31
71	-3	-17	6	31
91	-14	-15	11	31
85	4	-8	54	31
62	1	22	76	31
34	14	45	50	31
5	12	31	-19	31
-21	-1	33	59	31
-57	-12	16	54	31
-56	-24	-19	-51	31
-51	-14	-13	-26	31
-82	-19	-19	-31	31
-81	-34	-4	-4	31
-64	-44	31	22	31
-31	-44	8	14	31
16	-40	-9	22	31
53	-22	7	1	31
76	10	5	11	31
79	34	16	-2	31
94	59	28	6	31
79	71	9	-5	31
6	29	-16	-35	31
-8	1	-11	-15	31
37	11	12	-4	31
-26	-20	13	-6	31
-80	-56	1	-26	31
-81	-87	-15	-26	31
-102	-72	-33	4	31
-64	7	-15	25	31
-42	96	39	22	31
-58	134	51	5	31
6	68	14	-12	31
37	21	19	-21	31
-1	6	18	-29	31
56	-19	-2	-44	31
59	-11	1	-31	31
34	-2	-19	-12	31
24	25	-28	-6	31
6	7	-20	1	31
36	-49	10	-14	31
-12	-42	26	-23	31
-57	-9	16	2	31
-37	51	44	36	31
16	35	55	67	31
44	-41	9	63	31
-30	-21	15	21	31
-110	32	16	-1	31
-58	49	-43	11	31
7	-28	-24	13	31
29	-83	-12	22	31
144	16	-14	38	31
194	84	-5	21	31
147	67	-3	0	31
139	53	24	-2	31
118	-6	16	9	31
77	-83	8	27	31
16	-53	25	43	31
-23	-1	21	37	31
-42	53	4	7	31
-57	81	4	-13	31
-77	2	-2	-32	31
-132	-13	-17	-46	31
-97	-10	-22	-24	31
-6	5	-9	-14	31
-11	19	4	-31	31
-28	-40	-3	-29	31
32	-38	-2	-27	31
58	-67	-1	-13	31
37	-77	3	20	31
32	4	-2	27	31
2	46	-21	17	31
-18	73	-27	12	31
0	55	-24	-9	31
-19	4	3	-14	31
-69	-19	45	46	31
-62	-26	45	66	31
-39	16	24	17	31
-54	52	2	-1	31
-39	24	-4	-16	31
-12	-3	9	-36	31
-2	-18	1	-24	31
15	-44	-4	-1	31
-2	-54	-4	44	31
40	-49	-9	77	31
102	-30	-9	66	31
107	23	-5	29	31
102	41	9	15	31
63	58	4	4	31
35	94	-1	-6	31
10	54	6	-10	31
-10	26	-6	-19	31
-57	16	-1	-3	31
-109	-9	8	16	31
-120	-27	12	59	31
-135	-40	22	29	31
-103	-47	6	-37	31
-59	-36	6	-8	31
-46	0	19	-12	31
-34	17	14	-29	31
9	30	7	-31	31
53	12	0	-27	31
107	-1	4	43	31
204	-8	10	20	31
171	-16	8	-6	31
32	14	20	51	31
19	23	7	0	31
37	14	-13	-22	31
-26	9	-1	-32	31
-40	21	27	-16	31
-34	27	29	-38	31
-62	-5	4	-74	31
-100	-20	14	52	31
-69	-29	4	60	31
-19	-50	-32	1	31
-8	-32	-51	-16	31
29	-11	-35	-11	31
51	-6	7	4	31
87	32	-5	-1	31
107	46	-26	24	31
81	41	-5	31	31
34	69	29	-14	31
69	52	49	-71	31
92	25	50	-19	31
-10	-11	68	44	31
-37	-102	45	58	31
-116	-132	13	55	31
-161	-128	-4	32	31
-81	-90	1	37	31
-87	-2	56	36	31
-52	24	42	35	31
-29	106	-26	29	31
-22	198	-53	-11	31
31	176	-46	-35	31
64	109	-47	-7	31
88	13	-41	-19	31
126	-22	-13	-17	31
132	-7	-17	-2	31
91	-12	-24	-15	31
71	-38	-27	0	31
27	-70	15	-13	31
-18	-91	48	1	31
-66	-68	40	17	31
-96	14	42	9	31
-100	62	-3	18	31
-132	28	-4	20	31
-91	-73	12	13	31
-17	-97	19	12	31
-21	-15	21	21	31
-17	76	6	11	31
79	159	22	-17	31
106	142	-9	-44	31
123	104	-29	-27	31
152	37	-35	-4	31
111	-32	-32	3	31
109	-31	-11	14	31
94	-86	2	21	31
47	-89	31	18	31
-25	-62	25	-1	31
-62	-27	34	-2	31
-86	54	53	7	31
-127	62	32	11	31
-133	36	-15	8	31
-113	13	-37	6	31
-64	4	-29	16	31
-49	11	-17	5	31
-9	2	-16	-12	31
36	-8	-9	-17	31
43	-5	27	-12	31
77	-12	11	21	31
105	-28	-4	22	31
109	-36	3	-11	31
56	-27	2	6	31
-51	-17	32	17	31
-64	-49	46	10	31
-66	-61	54	11	31
-111	-44	39	7	31
-97	-21	24	16	31
-134	48	23	17	31
-111	101	-16	25	31
-48	134	-39	21	31
-22	109	-16	0	31
47	26	-6	-25	31
48	-41	-22	-74	31
19	-77	5	-89	31
66	-64	36	-38	31
69	-74	-6	14	31
67	-81	-21	20	31
92	-59	-12	43	31
33	18	5	98	31
42	94	21	91	31
28	81	22	51	31
-46	79	40	36	31
-84	41	22	4	31
-94	10	34	-9	31
-73	-2	52	6	31
-63	-27	17	2	31
-27	-11	12	7	31
24	11	11	9	31
53	26	0	3	31
32	13	-32	21	31
35	17	-42	-3	31
22	7	-7	-37	31
46	2	-2	1	31
127	16	-9	17	31
62	-34	1	7	31
11	-49	-17	-4	31
23	-38	-23	-16	31
-17	0	-4	-1	31
-47	75	-4	-9	31
-106	72	-7	-21	31
-131	40	-4	-41	31
-67	26	9	-64	31
-43	-7	18	-29	31
-43	-16	19	52	31
1	-4	11	52	31
40	-1	-18	4	31
89	-18	-24	24	31
121	-50	-11	11	31
122	-88	-4	-47	31
119	-132	23	-48	31
99	-124	20	4	31
62	-44	-4	38	31
21	33	-1	3	31
-6	86	2	1	31
-26	132	12	80	31
-51	107	16	70	31
-71	109	20	37	31
-81	91	30	-6	31
-77	43	19	-41	31
-72	26	-7	-39	31
-59	-29	-21	-56	31
-21	-26	-8	-6	31
-7	-56	-9	26	31
89	-79	7	9	31
154	-30	31	-6	31
101	-7	20	10	31
68	32	24	-1	31
-14	38	21	-4	31
-77	16	-3	5	31
-50	14	-6	-4	31
-57	22	-12	7	31
-71	18	-28	0	31
-84	22	-7	13	31
-74	15	12	7	31
-42	-27	7	5	31
-56	-43	17	14	31
8	-49	17	16	31
74	-32	1	27	31
79	18	-3	22	31
100	41	9	13	31
91	31	4	6	31
87	35	2	24	31
99	29	15	33	31
78	6	6	26	31
48	4	4	-6	31
17	7	8	-10	31
-12	8	11	49	31
-46	4	12	69	31
-77	-17	6	1	31
-96	-31	9	-22	31
-110	-22	11	-25	31
-93	-29	12	-61	31
-70	-59	15	-21	31
-36	-67	8	30	31
-8	-33	26	66	31
16	-53	12	31	31
69	-57	-53	-13	31
89	40	-71	-20	31
92	30	-59	-59	31
94	100	-36	-17	31
79	205	-16	22	31
55	65	-26	-6	31
31	42	-24	-18	31
2	72	2	-2	31
-41	41	14	30	31
-61	38	11	27	31
-76	-16	53	2	31
-96	-19	91	-5	31
-67	-37	57	2	31
-25	-31	2	11	31
-47	8	-14	2	31
-94	12	-13	-22	31
-19	-1	-2	-47	31
76	-26	19	-40	31
32	-22	19	1	31
101	-31	8	9	31
186	-21	22	24	31
80	-7	39	66	31
33	-12	8	66	31
16	-1	6	11	31
22	-2	14	-13	31
-11	-12	0	2	31
-44	-15	-1	-16	31
-43	-22	-6	-11	31
-107	-32	-4	-4	31
-99	-16	-12	2	31
-91	-5	-1	5	31
-61	12	10	-2	31
-10	41	4	-1	31
46	28	7	-1	31
87	9	-3	8	31
107	-2	-4	-3	31
146	-19	0	-9	31
117	-47	1	-7	31
62	-92	7	9	31
17	-97	11	41	31
-15	-35	6	36	31
-63	68	-7	52	31
-102	155	-16	39	31
-107	129	-21	-16	31
-113	93	-4	15	31
-96	77	-3	41	31
-77	-38	-12	66	31
-48	-78	6	76	31
-22	-50	4	-10	31
7	-35	-5	-39	31
54	50	-11	-38	31
73	67	-15	-30	31
81	-17	-16	-52	31
80	-89	-10	-96	31
64	-134	2	-31	31
39	-127	-7	9	31
6	-6	-7	10	31
-21	126	2	30	31
-54	116	7	19	31
-87	105	24	18	31
-102	90	31	9	31
-109	35	6	-10	31
-89	24	-12	-11	31
-49	-69	-19	0	31
-26	-82	-26	6	31
-10	-20	-18	-4	31
46	0	-11	18	31
71	62	13	24	31
50	46	34	18	31
67	25	42	0	31
67	15	51	-6	31
2	-3	58	14	31
7	10	75	24	31
169	-6	64	51	31
169	-7	44	39	31
-36	-17	34	4	31
-101	-33	31	-5	31
-61	-31	26	-9	31
-47	-17	4	-11	31
-67	29	1	0	31
-10	59	-1	-11	31
71	30	-6	-25	31
87	7	-3	-11	31
129	4	4	-1	31
121	-12	-10	7	31
104	-6	-9	16	31
109	-24	4	18	31
89	-35	-12	19	31
61	-19	-17	34	31
16	-11	-1	35	31
-26	32	20	12	31
-72	24	-5	-7	31
-98	-17	-21	2	31
-110	-10	-2	-30	31
-110	-27	-3	-97	31
-79	-45	-7	-54	31
-67	-47	2	-29	31
-43	-67	11	-36	31
13	-93	-4	6	31
49	-84	-8	99	31
66	67	-3	153	31
78	190	-24	52	31
97	179	-24	8	31
97	134	-2	22	31
36	56	19	14	31
0	12	5	24	31
-29	-19	-5	26	31
-66	-11	-14	15	31
-90	12	-27	-17	31
-117	-3	3	-4	31
-109	-2	3	-19	31
-109	-7	8	-14	31
-74	7	4	7	31
-32	-5	-15	-8	31
14	-14	-4	-15	31
87	-14	6	-37	31
124	-19	17	-54	31
163	-12	9	-50	31
127	-63	23	2	31
61	-68	36	46	31
83	-21	28	50	31
77	4	35	43	31
48	31	41	46	31
31	54	32	22	31
-42	30	18	-19	31
-110	-9	12	-12	31
-150	-5	12	-1	31
-134	-18	11	2	31
-92	-32	6	1	31
-94	-61	-10	-1	31
-94	-127	-19	-4	31
-59	-79	-19	2	31
-9	-6	-21	-6	31
30	14	-11	-24	31
37	36	-21	-9	31
45	13	-29	-9	31
77	50	-16	-29	31
106	109	-21	-58	31
89	87	-16	-16	31
38	52	-9	62	31
-1	31	-5	52	31
-69	30	-1	29	31
-114	34	2	31	31
-143	40	10	11	31
-118	31	11	2	31
-40	-16	4	-1	31
-21	-57	23	-13	31
26	-56	21	-7	31
24	-66	-3	-4	31
-1	-42	-1	7	31
28	33	-4	24	31
77	47	1	-26	31
97	27	31	-16	31
54	-3	48	20	31
61	-44	26	-31	31
54	-34	16	-36	31
-32	36	1	-4	31
-36	118	-16	59	31
-16	115	-19	56	31
-51	49	-14	19	31
-62	4	5	19	31
-57	-17	28	-6	31
-30	1	42	12	31
-23	14	17	2	31
-28	3	9	14	31
6	-9	-2	15	31
62	-10	-22	3	31
81	-2	-7	30	31
80	8	8	15	31
104	19	14	5	31
94	-13	-21	9	31
90	-27	-29	12	31
62	-15	-11	-17	31
11	-14	11	-8	31
-26	-1	23	39	31
-64	-7	-1	12	31
-82	-16	-2	-2	31
-104	-32	-19	4	31
-124	-34	-25	9	31
-62	-25	-11	-20	31
29	-28	-25	-44	31
-18	35	-22	-4	31
11	59	0	-4	31
109	0	39	17	31
85	-33	54	12	31
127	-52	48	-14	31
125	-35	58	-11	31
71	-4	63	-8	31
41	2	47	53	31
16	0	16	56	31
-2	24	-22	-9	31
-51	47	-51	-6	31
-46	69	-22	8	31
-77	89	3	-11	31
-137	42	-9	12	31
-111	-9	14	33	31
-59	-40	52	46	31
-22	-71	35	31	31
38	-79	-4	22	31
55	-7	-20	35	31
55	127	-21	-29	31
103	140	-2	-55	31
81	12	2	-19	31
68	-107	-30	3	31
81	-119	-37	-6	31
24	-58	-12	-6	31
1	27	10	13	31
-10	126	37	23	31
-26	126	51	27	31
-56	12	43	-12	31
-124	-46	2	-56	31
-122	-16	-29	-19	31
-88	41	-14	-2	31
-53	66	-7	-39	31
-25	24	2	-4	31
-2	-21	-11	-9	31
59	-27	-14	-16	31
69	-38	19	15	31
69	-48	23	27	31
102	-11	17	30	31
90	-18	4	5	31
54	-55	-7	9	31
1	-26	-2	15	31
-16	51	-7	16	31
-36	102	-9	-1	31
-76	48	1	13	31
-83	-17	-2	46	31
-104	-78	-8	30	31
-92	-50	-2	20	31
-69	75	1	-7	31
-59	55	6	-20	31
-34	7	23	-10	31
-17	3	26	-17	31
25	-11	21	-19	31
62	-13	19	-9	31
90	-19	15	2	31
99	-14	-4	10	31
71	-19	-12	26	31
52	-7	2	9	31
8	-1	13	-5	31
-51	-6	17	12	31
-89	-6	-6	34	31
-65	-9	-32	52	31
-66	6	-17	9	31
-107	4	19	-26	31
-79	4	8	-11	31
-1	4	-11	-6	31
14	-6	3	-1	31
-35	-37	-2	-19	31
10	-83	11	-43	31
39	-68	23	-42	31
86	-19	6	-11	31
144	47	4	58	31
85	114	-1	109	31
66	97	-7	79	31
47	66	-19	17	31
22	59	-21	1	31
-13	34	-11	-9	31
-34	7	1	-23	31
-47	2	30	-16	31
-101	15	42	4	31
-31	10	29	12	31
34	-19	35	18	31
-6	-66	31	11	31
0	-76	6	-9	31
42	-77	-6	-24	31
84	-79	-13	-46	31
108	-41	-4	-34	31
112	-39	-3	-11	31
112	1	-22	-9	31
72	16	-26	3	31
42	-7	-10	27	31
25	34	14	34	31
-25	51	16	9	31
-61	52	7	6	31
-89	104	25	14	31
-131	134	57	-4	31
-124	40	61	-8	31
-92	24	23	9	31
-96	42	12	42	31
-51	-4	-6	3	31
16	16	-28	-54	31
-51	29	6	23	31
-9	46	4	53	31
157	17	-15	40	31
167	2	-9	24	31
174	0	-12	-2	31
99	-52	-7	9	31
19	-77	8	-13	31
44	-71	15	-7	31
-25	-11	1	-29	31
-29	44	-18	8	31
-16	81	-14	60	31
-60	59	-14	6	31
-84	9	-34	-1	31
-64	-26	-28	16	31
-26	-51	6	-12	31
-27	-47	34	-26	31
27	-73	3	-34	31
88	-76	-16	-10	31
87	-78	24	46	31
101	-79	26	29	31
117	-50	-7	6	31
88	4	-23	2	31
68	121	4	-22	31
47	179	20	-11	31
-45	109	1	32	31
-118	-27	-11	29	31
-127	-79	-6	7	31
-128	-14	17	-14	31
-152	62	5	-34	31
-152	82	-7	-12	31
-111	71	-10	2	31
-65	60	-13	11	31
1	14	1	6	31
51	-15	-3	6	31
85	-25	-2	5	31
123	-29	1	2	31
119	-13	3	21	31
97	-17	14	28	31
58	-14	24	42	31
20	-31	29	47	31
34	-43	26	35	31
3	-27	41	-9	31
-112	-19	39	-30	31
-137	4	32	-16	31
-109	21	18	-27	31
-99	16	-12	-17	31
-25	-8	-32	1	31
-24	-42	-34	-4	31
-73	-69	14	9	31
-14	-35	47	41	31
91	-1	39	38	31
107	-53	24	9	31
67	-88	-8	-11	31
112	-72	-24	-2	31
144	4	-28	-11	31
89	187	-21	-31	31
35	262	-13	-42	31
-11	90	-15	-3	31
-25	2	11	64	31
16	-12	13	22	31
-87	-54	26	21	31
-165	-1	65	28	31
-82	-7	60	7	31
-81	-9	54	31	31
-33	5	52	21	31
8	-21	29	14	31
22	-29	2	2	31
54	-58	1	6	31
46	-57	-4	-3	31
88	-40	-9	-17	31
119	-17	7	0	31
94	70	20	-4	31
15	134	13	-21	31
-46	71	-22	-28	31
-51	-7	-41	-26	31
-49	-56	-22	-26	31
-70	-65	-18	-26	31
-72	-5	-27	-8	31
-55	13	-33	39	31
-89	32	-21	7	31
-104	23	-10	-44	31
-49	-4	-24	-19	31
14	34	-9	-8	31
40	39	1	0	31
40	16	13	1	31
31	-8	23	36	31
77	-12	-5	71	31
146	-21	19	34	31
107	-49	49	-6	31
62	-46	21	-14	31
52	-28	-15	-5	31
-15	7	-6	34	31
-60	59	11	33	31
-47	84	14	20	31
-83	62	24	52	31
-119	17	17	46	31
-99	-9	2	21	31
-70	-23	-29	-4	31
-35	-47	-42	-11	31
8	-16	-6	-7	31
48	30	4	-8	31
64	1	-15	-18	31
90	-16	-34	-3	31
117	-6	-23	18	31
96	-1	-2	-36	31
48	19	6	-19	31
12	37	26	9	31
37	57	22	-12	31
15	39	13	-7	31
-33	-11	7	-32	31
-29	-26	3	5	31
-69	-14	15	16	31
-66	-14	22	2	31
-44	4	18	11	31
-25	16	-2	-11	31
-6	1	-7	-20	31
-1	7	-7	-26	31
56	7	-13	-22	31
58	2	-14	11	31
38	1	-11	53	31
67	-22	7	23	31
56	-52	28	14	31
25	-70	47	42	31
8	-59	27	18	31
11	-9	21	-9	31
-16	69	41	-5	31
-76	72	4	16	31
-71	22	-35	7	31
-51	0	-52	9	31
-63	-7	-59	1	31
-41	-7	-27	-1	31
7	-4	4	19	31
33	9	19	27	31
52	-22	41	63	31
69	-59	38	30	31
53	-33	35	-57	31
33	36	34	-22	31
64	126	17	26	31
90	77	-4	20	31
22	-53	-3	7	31
-16	-68	12	2	31
-53	8	25	16	31
-119	105	29	-2	31
-117	82	11	7	31
-116	1	8	-1	31
-69	10	5	-1	31
-76	-26	-2	21	31
-62	-79	-7	-2	31
30	-79	-16	-34	31
41	-43	-12	-27	31
71	50	-13	8	31
134	101	-22	29	31
107	66	-36	42	31
19	14	-34	28	31
99	-59	-14	15	31
147	-97	12	12	31
57	-41	31	8	31
4	18	46	11	31
-41	96	49	-6	31
-59	139	41	-21	31
-86	107	29	-14	31
-114	75	14	4	31
-127	27	2	-2	31
-86	-10	-25	-14	31
-43	-26	-37	0	31
2	-38	-22	6	31
70	-39	-12	-9	31
118	-42	9	-19	31
129	-38	21	-26	31
112	-31	0	-40	31
117	-14	-22	-37	31
84	0	-31	-2	31
50	-14	-21	9	31
36	-27	0	-21	31
-8	-31	-5	-37	31
-73	-16	4	-27	31
-127	7	27	29	31
-126	4	9	68	31
-125	7	11	29	31
-106	14	26	35	31
-74	32	36	58	31
-44	30	32	29	31
1	-39	11	12	31
37	-63	9	35	31
66	-58	-4	41	31
91	-56	-4	23	31
114	-31	7	56	31
71	12	-1	8	31
32	115	6	-37	31
7	169	8	7	31
-17	134	-11	-10	31
4	66	-9	2	31
8	27	14	0	31
-9	3	14	-11	31
-114	-52	5	-21	31
-152	-57	6	-26	31
-54	-44	4	-10	31
-27	-19	-7	-31	31
2	37	-17	-10	31
47	60	-14	39	31
77	31	-2	70	31
102	0	27	14	31
129	-16	31	-24	31
132	-25	16	17	31
89	-22	0	33	31
73	-41	-6	37	31
36	-40	11	4	31
3	-26	7	-22	31
-49	-21	17	-26	31
-120	-1	22	-22	31
-129	1	21	2	31
-113	-23	17	0	31
-99	-13	5	-5	31
-63	25	11	21	31
-25	72	9	8	31
-11	75	-20	11	31
32	7	-41	34	31
69	-12	-25	18	31
89	-19	-23	49	31
100	-22	-10	-1	31
78	-7	2	-48	31
57	-12	3	-33	31
11	10	19	-29	31
-24	22	16	-6	31
-10	31	24	-21	31
-17	22	14	-7	31
-44	-1	-2	11	31
-81	4	7	24	31
-97	-7	2	26	31
-56	-19	21	17	31
-84	-27	33	9	31
-89	-6	22	-35	31
41	6	-1	-46	31
78	-31	-29	-14	31
85	-67	-28	22	31
109	-114	-15	16	31
79	-121	24	9	31
133	-68	44	21	31
122	44	29	32	31
-16	167	14	26	31
-27	156	-8	-2	31
-13	85	-14	4	31
-73	49	2	22	31
-46	-21	29	51	31
-50	-6	40	24	31
-66	39	24	-11	31
-55	54	-9	40	31
-33	104	-24	0	31
3	34	-28	-37	31
16	-17	-13	9	31
60	-23	-28	31	31
65	-49	-49	32	31
75	-27	-6	-7	31
86	-11	24	-4	31
60	-14	25	-6	31
33	-37	0	-4	31
-1	0	-8	25	31
-19	8	8	38	31
-61	-31	21	54	31
-97	-20	13	-10	31
-97	-4	11	-18	31
-97	47	32	20	31
-98	61	17	-19	31
-86	-9	-1	-14	31
-59	-31	1	-24	31
-24	-1	4	-32	31
16	-3	-4	-26	31
50	-11	-13	-29	31
82	-27	-19	-12	31
96	-90	-24	-10	31
73	-126	-5	19	31
48	-91	6	26	31
62	-26	18	34	31
57	79	34	43	31
-37	195	24	17	31
-110	137	24	14	31
-77	24	47	14	31
-68	32	39	-15	31
-87	34	-11	-51	31
-76	44	-36	-33	31
-74	14	-21	-19	31
-22	-19	-4	-19	31
-9	4	0	2	31
34	-12	-13	19	31
119	-6	-23	60	31
122	-17	-8	23	31
122	-48	5	-29	31
98	-32	6	-8	31
116	-18	9	-21	31
84	27	19	2	31
-39	70	32	26	31
-106	26	2	12	31
-124	-51	-21	17	31
-108	-102	-2	4	31
-95	-98	-6	1	31
-69	-64	-17	6	31
-71	-20	-12	6	31
-44	61	-6	14	31
34	125	-1	38	31
92	129	-4	47	31
139	84	-8	14	31
141	42	7	-11	31
145	9	27	1	31
145	-11	41	8	31
96	-38	46	-36	31
27	-78	31	-31	31
17	-52	19	25	31
23	-6	5	17	31
-59	53	-35	17	31
-74	64	-41	7	31
-65	-17	-8	3	31
-107	-23	-3	12	31
-97	-26	12	1	31
-102	-40	28	-12	31
-79	-6	9	2	31
-30	19	5	72	31
12	38	-2	46	31
60	-16	-17	16	31
73	-9	-7	-1	31
89	42	32	-25	31
87	42	26	-62	31
54	42	6	-102	31
27	13	21	-42	31
-21	14	14	16	31
-79	11	16	51	31
-41	-3	2	67	31
-37	-7	-11	29	31
-69	-19	1	2	31
-41	-5	-6	11	31
-84	-8	-16	-2	31
-19	-12	-33	-1	31
104	-16	-16	-21	31
21	-13	7	-24	31
-27	-4	-14	27	31
96	-12	12	17	31
106	-4	38	2	31
74	2	18	-14	31
82	24	13	-36	31
14	17	-1	-18	31
-31	1	-8	39	31
-14	47	29	71	31
-18	-4	39	36	31
-60	-79	-2	16	31
-72	-48	-21	23	31
-100	-7	-11	14	31
-106	51	-9	-3	31
-88	56	-19	-11	31
-61	9	-11	-11	31
-6	-29	11	-20	31
30	-119	2	-30	31
76	-165	7	-19	31
102	-112	53	35	31
128	-7	51	73	31
146	142	1	-9	31
104	142	-14	-42	31
51	-4	-8	13	31
19	-23	4	15	31
3	33	16	38	31
-47	89	46	43	31
-97	160	64	24	31
-99	144	2	-34	31
-64	48	-39	-39	31
-39	11	-14	-17	31
-58	10	-1	-22	31
-46	-26	4	-47	31
-1	-26	27	-46	31
43	15	44	71	31
71	49	27	66	31
73	37	7	31	31
68	4	3	17	31
53	-27	-23	6	31
40	-40	-42	13	31
36	-42	-39	-2	31
1	-54	-17	21	31
-38	-56	-4	11	31
-78	-39	-6	16	31
-129	-13	14	-6	31
-156	-38	17	-32	31
-136	-60	12	-27	31
-21	-32	24	-21	31
114	16	19	-7	31
66	94	2	-7	31
-44	76	-1	4	31
22	1	2	-2	31
67	-16	-11	-1	31
109	-71	-9	33	31
124	-72	1	37	31
91	-50	-26	-19	31
88	-11	-30	-4	31
31	77	-13	32	31
-6	72	1	1	31
-81	51	34	-17	31
-116	38	32	-24	31
-102	24	12	7	31
-148	8	-9	11	31
-189	-12	4	24	31
-131	-11	22	52	31
-39	-26	-4	27	31
-32	-12	5	16	31
10	17	19	8	31
75	30	10	5	31
109	8	-6	13	31
129	-9	-9	8	31
126	-6	-3	-1	31
111	-2	-1	1	31
90	27	14	8	31
76	41	14	16	31
23	32	19	9	31
-42	16	22	13	31
-85	9	12	21	31
-116	7	18	12	31
-115	1	25	14	31
-97	3	21	11	31
-81	-7	5	11	31
-40	-14	-8	4	31
6	-20	-17	-17	31
39	-14	-23	-22	31
77	-6	-24	-19	31
102	-14	-17	-18	31
113	-14	-3	-19	31
116	-4	11	13	31
81	37	19	61	31
16	57	24	8	31
6	-7	20	-12	31
-19	-52	1	60	31
-81	-29	-9	30	31
-81	-8	1	-6	31
-86	30	16	-21	31
-90	24	12	-4	31
-86	-35	-3	-13	31
-95	-19	-12	-19	31
-22	-41	-23	1	31
81	-102	-26	-25	31
96	-104	-14	16	31
101	-52	39	11	31
134	7	52	-32	31
141	19	4	-32	31
122	106	11	11	31
82	134	23	17	31
42	65	18	-2	31
2	36	2	-10	31
-35	-3	-11	-19	31
-68	51	29	22	31
-92	135	33	41	31
-101	148	1	41	31
-97	74	1	3	31
-77	-2	14	-31	31
-51	-44	3	-39	31
-19	-117	-11	11	31
12	-96	-8	73	31
49	5	12	57	31
88	80	11	9	31
100	38	-17	-9	31
87	-31	-1	25	31
68	-37	20	21	31
41	-57	20	16	31
12	-21	31	0	31
-33	-15	9	-9	31
-73	-36	-11	-16	31
-73	-28	0	-11	31
-76	-18	-7	6	31
-67	2	-39	11	31
-68	-29	-32	13	31
-52	-49	-11	-14	31
27	-60	1	1	31
29	-37	29	3	31
55	44	24	-1	31
141	72	2	-17	31
46	66	-12	-46	31
43	46	-47	-54	31
94	25	-61	-38	31
36	15	-21	-1	31
54	-24	2	-39	31
1	-84	-5	-53	31
-51	-99	-2	19	31
-77	-74	10	57	31
-86	-17	17	31	31
-99	107	6	21	31
-131	153	-21	1	31
-59	150	-15	-12	31
-14	144	-2	15	31
27	52	-11	15	31
74	17	26	26	31
96	-7	56	19	31
132	-29	46	9	31
171	-15	37	7	31
160	-25	17	-14	31
54	-4	12	-28	31
-1	6	22	-33	31
61	-17	12	9	31
49	-44	6	42	31
-52	-31	-2	-14	31
-81	-6	-10	-19	31
-79	-4	-6	24	31
-77	-41	-3	1	31
-107	-75	1	17	31
-84	-24	-6	37	31
-1	55	-15	70	31
-2	120	-19	54	31
37	60	-23	-3	31
57	-24	-2	22	31
64	-31	30	20	31
84	-64	1	-18	31
57	-32	-23	-12	31
52	16	19	26	31
24	34	41	10	31
-6	43	28	16	31
-47	12	27	-13	31
-82	-7	19	-33	31
-68	-16	1	-27	31
-85	-18	-1	-52	31
-143	-12	11	-26	31
-166	-12	17	-20	31
-87	-10	-4	24	31
-11	-10	-6	65	31
5	-26	-4	56	31
-4	-29	-16	66	31
-33	-2	-2	59	31
5	14	-5	31	31
81	-7	-22	-4	31
137	34	-2	-21	31
140	64	39	-12	31
100	-5	21	-18	31
69	3	2	-13	31
-7	32	26	3	31
-62	-2	24	17	31
-87	7	31	16	31
-77	7	26	7	31
-54	-6	10	11	31
-38	-6	9	-4	31
-65	-26	-2	28	31
-67	-45	-12	46	31
74	-61	-2	6	31
94	-27	2	-5	31
69	57	4	-20	31
95	82	15	-43	31
85	64	4	-41	31
82	59	1	-19	31
29	2	-4	26	31
-10	-14	-4	59	31
-47	18	16	54	31
-77	9	17	19	31
-90	8	18	18	31
-102	-22	12	22	31
-111	-51	5	-1	31
-111	-42	9	-2	31
-62	-12	6	-8	31
-25	11	3	-2	31
8	-29	14	1	31
46	-96	37	0	31
84	-74	46	9	31
101	7	15	-2	31
99	69	-25	-22	31
99	89	-56	-32	31
87	54	-67	-11	31
59	35	-22	4	31
6	17	0	-14	31
-66	4	-22	-28	31
-112	-14	-14	-24	31
-29	-62	10	-15	31
-7	-108	2	-2	31
-126	-145	-26	-4	31
-89	-89	-36	0	31
-34	31	-36	25	31
-42	186	-12	65	31
54	147	2	66	31
107	57	24	39	31
157	125	48	12	31
169	43	11	-5	31
116	18	-2	20	31
70	49	1	9	31
49	46	2	1	31
86	64	22	2	31
-12	28	39	-8	31
-87	4	27	-11	31
-73	-46	-14	-29	31
-126	-12	-27	-8	31
-129	40	-19	4	31
-126	19	-1	-46	31
-103	-22	18	-26	31
-50	-32	41	-7	31
-1	74	63	-12	31
59	78	30	21	31
104	-6	-6	26	31
144	-27	4	62	31
88	-42	6	46	31
39	-72	-13	29	31
81	-106	-22	32	31
76	-97	6	-18	31
79	-72	21	-14	31
50	-12	24	3	31
-46	19	-17	0	31
-82	9	-32	26	31
-87	90	35	47	31
-80	64	42	26	31
-37	-44	18	-21	31
-49	-59	-6	-61	31
-74	-37	-24	-7	31
-29	31	-11	64	31
29	76	-7	22	31
67	37	-11	4	31
99	14	-12	14	31
121	6	-12	-1	31
116	-11	-3	6	31
86	11	11	-20	31
47	16	18	-20	31
-14	8	29	-21	31
-91	-19	29	16	31
-144	-59	12	87	31
-132	-49	4	65	31
-148	-37	-5	-20	31
-131	8	-10	-39	31
-71	39	-1	0	31
-69	12	-8	-32	31
-21	17	5	-23	31
44	26	21	-1	31
49	29	1	-1	31
59	19	-28	-37	31
96	-9	-36	-58	31
121	-3	-14	7	31
91	-17	-3	-11	31
46	-51	4	-32	31
11	-63	4	-24	31
-41	-42	-1	-9	31
-62	-10	6	9	31
-49	15	7	61	31
-73	20	9	102	31
-97	-12	-4	7	31
-74	-24	14	-37	31
-36	18	54	-14	31
49	62	76	-3	31
86	67	64	9	31
-1	69	11	14	31
39	31	-29	4	31
138	-16	-8	-14	31
66	-2	18	11	31
53	26	7	32	31
58	57	17	21	31
16	44	13	6	31
7	24	2	-13	31
-33	11	-17	-24	31
-54	-42	-8	1	31
-87	-100	18	23	31
-121	-142	-6	11	31
-107	-139	-2	-8	31
-57	-64	-10	4	31
-23	122	-12	34	31
-17	209	2	21	31
-31	148	-11	-3	31
19	92	12	-7	31
131	3	38	4	31
134	9	14	-3	31
87	41	-9	-8	31
77	37	5	7	31
41	32	6	25	31
6	-27	1	51	31
-6	-38	-16	15	31
-46	-16	-46	-31	31
-77	-46	-47	-32	31
-84	-72	-12	-7	31
-104	-59	4	47	31
-129	-59	-6	13	31
-94	-29	6	-28	31
17	5	17	2	31
34	18	28	7	31
15	-18	-2	12	31
106	-74	-17	-40	31
134	-26	5	-8	31
132	26	-4	51	31
124	70	-8	5	31
76	56	-4	27	31
47	-7	15	23	31
-22	-36	12	27	31
-3	-65	3	20	31
36	-35	13	-11	31
-71	49	33	-7	31
-141	81	26	-7	31
-97	32	-8	-6	31
-71	-3	1	-12	31
-46	-38	9	34	31
-15	-36	4	82	31
-30	-2	1	56	31
-12	2	12	7	31
51	22	8	-2	31
129	24	-14	-3	31
104	46	1	-1	31
34	36	27	-11	31
31	26	17	-14	31
-12	57	-6	9	31
-41	49	-9	3	31
-57	77	-22	-1	31
-61	73	-11	4	31
2	19	7	-2	31
-12	-17	9	-28	31
-51	-38	16	-24	31
-32	-26	28	10	31
-17	-11	31	-11	31
11	-13	3	-37	31
39	-16	-7	11	31
81	-1	-19	49	31
119	-13	-7	43	31
132	-51	32	11	31
132	-46	47	16	31
81	-43	42	15	31
16	-39	32	4	31
-1	19	26	19	31
18	54	5	-19	31
-3	27	-13	0	31
-20	-34	-2	-48	31
-49	-46	16	-57	31
-86	14	27	-7	31
-89	40	14	12	31
-88	47	-10	30	31
-72	14	-11	-7	31
-56	-47	-23	4	31
-3	-57	-44	-27	31
37	-37	-36	-4	31
58	20	-9	16	31
72	44	20	11	31
47	67	24	52	31
52	43	2	29	31
81	1	-9	4	31
104	50	-12	-14	31
-29	24	-19	-17	31
-104	7	-33	-2	31
-35	-11	-26	13	31
-99	-42	6	11	31
-87	-20	11	2	31
-79	-39	24	-14	31
-48	-14	32	-20	31
12	-6	14	-17	31
17	-11	4	-22	31
100	13	20	-25	31
100	24	39	13	31
104	7	21	82	31
83	-50	1	63	31
24	-51	27	32	31
22	-13	44	28	31
9	34	11	16	31
6	92	-7	11	31
-29	97	-15	-21	31
-68	46	-29	-41	31
-67	-3	-25	-24	31
-87	-39	-17	1	31
-113	-47	-7	1	31
-122	-8	-9	-4	31
-92	0	-12	-3	31
-22	-3	-12	-5	31
42	7	-2	2	31
77	7	9	9	31
66	32	0	6	31
99	-16	-21	-12	31
112	-91	-16	-16	31
74	-37	5	2	31
51	93	6	30	31
-16	149	-5	18	31
-32	93	-12	-13	31
-31	51	12	10	31
-59	3	16	44	31
-79	-17	2	46	31
-89	-14	23	22	31
-29	-9	36	-31	31
7	14	42	-57	31
-36	-31	29	-6	31
-46	-11	9	47	31
-9	12	-1	12	31
29	-12	2	-14	31
94	-9	10	25	31
81	-47	2	0	31
52	-45	7	1	31
36	-15	35	-2	31
-6	-13	27	-50	31
15	-9	1	-29	31
-42	-7	-2	20	31
-85	1	1	39	31
-37	4	11	-2	31
-39	-4	2	29	31
-54	-1	-7	76	31
-40	-4	-8	71	31
-2	-24	-6	56	31
18	-16	-1	42	31
25	-27	2	30	31
54	-47	-3	27	31
87	-34	-22	44	31
99	-6	-2	13	31
101	21	15	10	31
91	2	21	-7	31
32	-4	32	-36	31
-12	14	19	-36	31
-14	31	9	-41	31
-41	75	-12	-26	31
-62	74	-31	-17	31
-76	80	-34	-7	31
-100	102	-44	-6	31
-69	51	-47	28	31
-50	26	-2	-19	31
-54	-26	56	-58	31
-27	-65	64	47	31
35	-47	59	51	31
93	-20	41	34	31
110	54	17	1	31
115	37	11	-20	31
99	34	16	12	31
86	17	15	-9	31
63	-32	-3	4	31
32	-32	1	4	31
2	-54	6	9	31
-49	-41	16	12	31
-70	-57	31	27	31
-91	-12	23	28	31
-127	35	5	-37	31
-132	8	-22	-63	31
-104	50	-17	-17	31
-22	69	-3	39	31
64	69	-14	18	31
26	82	-27	-16	31
30	49	-39	-11	31
117	5	-12	-2	31
73	-15	9	-6	31
92	-24	-10	-12	31
77	-36	-11	-9	31
19	-49	-11	12	31
28	-54	2	53	31
-37	-57	29	40	31
-57	-66	40	-19	31
-77	-31	29	-16	31
-106	16	-2	-11	31
-117	60	-22	-21	31
-99	53	-38	-9	31
-46	-4	-48	-11	31
-41	7	-19	16	31
-15	23	7	21	31
57	25	19	16	31
62	-3	59	15	31
8	-20	55	10	31
-38	-1	-14	11	31
59	-16	-21	11	31
219	4	11	24	31
121	-12	7	24	31
4	-33	-2	23	31
-46	-22	-2	24	31
-192	-21	-6	26	31
-154	11	-18	25	31
-99	31	2	12	31
-116	26	32	2	31
-49	-7	32	-9	31
-22	8	37	-20	31
49	44	21	-54	31
109	24	4	-96	31
137	18	11	-67	31
162	-4	2	-11	31
135	-42	11	9	31
107	-64	34	-4	31
91	-33	29	4	31
92	-6	34	37	31
36	16	27	56	31
6	71	0	65	31
-16	41	-22	26	31
-75	-13	-47	-13	31
-87	-53	-37	-18	31
-122	-47	-21	-11	31
-111	82	-4	-7	31
-59	105	2	-6	31
-4	24	-1	11	31
31	32	15	11	31
54	28	6	17	31
89	2	17	6	31
84	12	16	-1	31
92	-1	-6	2	31
75	-24	12	-14	31
50	-46	12	-11	31
31	-29	-1	10	31
6	-26	-6	29	31
-21	57	-3	2	31
-75	174	-20	-22	31
-104	99	-27	-17	31
-119	38	24	-14	31
-113	36	60	10	31
-102	-6	38	36	31
-89	-14	9	44	31
-36	-19	17	26	31
24	-47	1	-14	31
72	-41	-19	0	31
64	-22	-7	0	31
55	-41	-4	-6	31
84	-11	-16	13	31
85	12	-19	-44	31
74	-4	12	-30	31
23	-13	26	-2	31
-52	-5	11	-8	31
-89	14	3	18	31
-82	3	1	36	31
-64	-19	4	71	31
-75	-31	9	41	31
-78	-20	6	12	31
-47	-17	-1	-6	31
10	-28	9	-17	31
45	-37	4	-17	31
72	-66	-19	-28	31
91	-59	-14	9	31
88	-26	-8	31	31
104	-3	-14	5	31
86	10	-9	13	31
65	28	-9	23	31
21	36	-8	-36	31
-84	16	17	-3	31
-81	12	39	27	31
-84	-11	26	2	31
-122	-19	17	18	31
-93	-14	-1	-6	31
-114	26	5	-10	31
-54	99	16	-6	31
5	61	-19	1	31
22	35	-7	2	31
62	26	-16	-9	31
32	28	-24	7	31
99	53	11	26	31
204	3	-6	2	31
137	-9	-9	-23	31
74	0	-12	6	31
62	3	-1	5	31
-6	10	22	16	31
-4	5	22	24	31
-42	14	26	24	31
-83	6	9	42	31
-37	9	-4	-4	31
-74	8	-29	-51	31
-58	-21	-37	-14	31
-39	-52	-32	16	31
-24	-49	-2	6	31
12	-31	34	-5	31
20	-7	37	-16	31
61	47	39	8	31
70	39	37	27	31
81	-14	31	5	31
87	-11	9	3	31
81	12	14	25	31
25	11	27	40	31
-27	-18	15	32	31
-22	-78	20	2	31
-73	-116	9	9	31
-96	-107	-4	31	31
-107	-58	19	26	31
-123	44	17	12	31
-97	92	-1	-8	31
-56	116	4	18	31
-26	197	-22	24	31
-37	115	-22	-67	31
-1	38	8	-71	31
60	119	7	-12	31
103	69	2	-4	31
144	6	2	16	31
146	-7	12	14	31
126	-26	12	31	31
78	-11	2	29	31
59	-36	1	5	31
21	-34	15	9	31
-71	-27	34	-6	31
-86	-11	31	-9	31
-67	-4	39	-18	31
-84	-29	29	-7	31
-76	-30	-2	-7	31
-24	-50	-25	-9	31
1	-57	-47	7	31
8	-46	-51	27	31
34	-10	-36	44	31
52	37	-14	15	31
74	57	-1	-2	31
122	96	21	-14	31
115	72	15	-46	31
80	-11	14	-43	31
41	-29	40	-6	31
-20	-46	21	28	31
-52	-96	4	42	31
-63	-85	-2	17	31
-71	-52	-7	20	31
-119	-39	-19	72	31
-134	14	-9	39	31
-110	48	19	21	31
-72	71	2	41	31
-39	119	-14	-6	31
-19	81	-14	4	31
27	-11	-16	-19	31
46	-27	-34	-48	31
67	4	-22	-23	31
80	7	-2	-21	31
81	17	8	-2	31
98	28	28	-4	31
44	27	24	2	31
36	14	21	9	31
31	-9	4	24	31
-81	-20	-7	26	31
-111	-40	0	6	31
-122	-36	2	4	31
-78	-24	2	-4	31
-20	-37	1	-22	31
-36	-26	7	-42	31
-6	-3	-3	-11	31
47	20	-2	47	31
140	32	11	64	31
159	6	-4	9	31
114	2	-2	-27	31
83	3	12	7	31
56	-2	9	11	31
22	-17	8	-1	31
-4	-99	16	4	31
-36	-195	27	-8	31
-88	-230	25	-29	31
-97	-177	20	-39	31
-115	-5	28	-13	31
-116	207	22	44	31
-84	355	-1	47	31
-51	383	-37	-23	31
-22	220	-39	29	31
-2	50	-24	101	31
27	-27	-20	26	31
68	-37	14	25	31
137	4	24	13	31
132	-18	10	-6	31
54	-7	10	27	31
15	15	12	7	31
19	-4	3	7	31
-14	-14	-11	2	31
-63	-26	-11	9	31
-77	-21	-4	25	31
-76	-56	11	9	31
-54	-91	9	-4	31
-47	-84	-7	6	31
-35	-49	-21	3	31
-12	29	-16	-4	31
9	78	2	-8	31
72	31	14	-9	31
98	-7	29	0	31
39	-3	36	1	31
52	-27	39	4	31
93	-23	40	-4	31
79	-27	17	-11	31
65	-19	8	-11	31
20	2	11	-14	31
-10	12	19	-14	31
-51	16	44	-22	31
-71	-16	32	-43	31
-72	8	24	-8	31
-87	30	27	64	31
-66	-9	-7	-13	31
-46	-107	-36	-6	31
-5	-159	-27	97	31
24	-103	-54	42	31
60	-50	-94	6	31
96	101	-72	-17	31
101	152	-29	-7	31
110	67	58	-5	31
88	74	111	-41	31
57	25	64	-25	31
21	12	27	-6	31
-12	52	-4	8	31
-67	39	15	-2	31
-122	5	74	-11	31
-115	-20	57	3	31
-134	14	26	17	31
-185	51	10	0	31
-167	38	-37	-4	31
-57	-13	-57	13	31
69	-12	-51	6	31
153	-2	-52	-5	31
174	-2	-35	-13	31
31	-1	-16	-15	31
22	-61	9	-14	31
176	-71	19	21	31
86	-51	12	54	31
-29	-21	14	-3	31
-46	46	13	-36	31
-21	79	15	14	31
13	42	22	17	31
-74	-49	17	6	31
-112	-48	11	19	31
-90	26	17	25	31
-64	73	4	21	31
-29	72	-17	4	31
-7	-10	-29	-17	31
51	-100	-31	-8	31
54	-135	-2	26	31
60	-61	1	17	31
80	107	-12	14	31
82	195	-15	-2	31
99	175	-5	-13	31
64	129	17	42	31
45	56	10	53	31
19	11	26	57	31
-19	-9	31	83	31
-41	-47	4	38	31
-65	-64	-11	14	31
-82	-66	-25	7	31
-90	-69	-15	-10	31
-84	-76	-11	-9	31
-69	-61	-7	-39	31
-36	-26	6	-34	31
-7	52	4	-27	31
26	108	4	-37	31
53	43	11	-36	31
73	1	23	-27	31
94	-6	2	-11	31
61	-37	-14	-3	31
6	-34	21	21	31
-27	-33	30	16	31
-61	1	29	-9	31
-111	14	39	-16	31
-106	-15	8	-2	31
-89	-18	-8	-9	31
-95	-38	9	-9	31
-52	-59	44	4	31
-29	-60	70	6	31
24	-49	24	30	31
69	-13	-16	19	31
85	34	-20	6	31
91	59	-6	22	31
81	72	5	13	31
169	101	-13	-11	31
185	60	7	25	31
96	4	26	31	31
61	1	17	-6	31
45	-14	3	-4	31
-2	-5	-8	-18	31
-26	17	-9	-11	31
-55	24	-3	-9	31
-74	26	-2	-16	31
-74	13	-12	-4	31
-81	6	-1	1	31
-51	1	4	-7	31
-50	-1	0	-27	31
-21	-41	-7	-26	31
11	-98	-15	12	31
14	-88	-4	33	31
36	-82	-7	32	31
54	-85	9	65	31
64	-8	12	72	31
47	34	-4	27	31
33	64	13	17	31
-2	134	3	32	31
-27	83	-15	53	31
-52	-4	-14	7	31
-80	-16	7	-37	31
-70	-39	33	27	31
-74	-26	24	17	31
-68	42	0	-12	31
-41	58	-11	-8	31
-2	59	22	10	31
44	3	19	12	31
89	-36	-24	-19	31
92	21	-22	-29	31
77	51	-14	-47	31
98	84	-8	2	31
56	43	-4	34	31
-22	-6	8	25	31
17	4	22	31	31
56	9	16	12	31
9	34	20	-49	31
-6	19	26	-86	31
-52	12	19	-37	31
-59	-4	19	69	31
-42	-4	10	92	31
-61	-4	-26	-52	31
-34	-26	-29	-34	31
-39	5	-10	31	31
-23	10	-4	-18	31
32	28	19	-25	31
72	41	14	-44	31
106	26	4	-22	31
119	-4	12	-3	31
108	-32	17	26	31
62	-44	-9	102	31
23	-46	-9	139	31
-22	-46	16	36	31
-84	-124	1	-29	31
-106	-90	-4	16	31
-116	7	-2	12	31
-127	27	9	28	31
-112	44	16	3	31
-81	-4	24	-14	31
-43	-30	7	-21	31
-4	-37	-29	-27	31
51	-18	-30	-11	31
91	1	-47	-16	31
101	-4	-60	1	31
103	8	-34	-6	31
81	-9	-14	-6	31
64	6	14	-6	31
66	10	84	-14	31
19	2	71	-2	31
-116	18	36	10	31
-92	13	46	18	31
-32	11	13	26	31
-105	-1	22	29	31
-95	-6	30	11	31
-117	-14	17	-1	31
-87	-28	37	-7	31
16	4	36	4	31
22	30	5	-16	31
36	31	0	-42	31
130	86	9	-13	31
159	94	-34	43	31
14	-3	-46	14	31
-38	-27	-1	-9	31
3	-10	-13	51	31
-12	29	-31	35	31
-20	72	-7	20	31
-34	9	9	-4	31
-34	-18	13	1	31
-39	-34	17	12	31
-55	-77	7	-11	31
-61	-18	0	-1	31
-60	64	27	-9	31
-12	112	33	-6	31
39	70	-12	-25	31
69	0	-47	-16	31
82	10	-19	-11	31
93	17	2	-29	31
121	47	-19	-21	31
136	38	-22	21	31
127	-27	-11	80	31
82	-59	12	64	31
28	-108	24	19	31
1	-126	27	-1	31
-46	-108	32	2	31
-78	-21	38	-5	31
-88	81	46	0	31
-97	126	16	49	31
-81	137	-19	34	31
-85	72	-32	-13	31
-36	39	-15	21	31
87	11	-12	-9	31
93	-3	-32	-29	31
39	22	-10	17	31
97	1	14	-41	31
97	3	9	-45	31
60	-11	-4	14	31
85	-28	-3	77	31
9	-16	16	105	31
-61	-12	23	51	31
-49	-11	21	26	31
-86	1	22	21	31
-110	21	17	19	31
-109	18	7	-9	31
-127	6	-7	-59	31
-122	-14	0	-65	31
-65	-23	-6	-35	31
4	-31	-17	-21	31
42	-35	-9	-11	31
101	-19	-7	-2	31
125	-26	-8	-14	31
130	-39	-2	-13	31
166	-60	9	-22	31
131	-58	8	-14	31
87	-26	8	7	31
57	21	8	12	31
12	72	1	19	31
-35	40	-14	42	31
-88	23	-20	25	31
-99	34	-11	-9	31
-101	4	14	-6	31
-94	-6	35	-11	31
-59	-44	17	-8	31
-31	-43	15	-22	31
-18	-3	20	7	31
1	34	25	39	31
31	46	47	5	31
76	-16	30	-9	31
72	-11	6	49	31
21	96	-5	83	31
-3	149	-14	9	31
-9	67	-26	11	31
-7	36	-17	12	31
-58	23	2	-54	31
-131	-27	-1	-20	31
-151	-22	-2	23	31
-132	-27	15	16	31
-109	-10	32	24	31
-78	9	22	12	31
-32	-1	14	-24	31
18	-9	16	-37	31
