File Name: not saved
Channel 1: 'EMG 1', 9373 values, raw ADC, no filters.
Channel 2: 'EMG 2', 9373 values, raw ADC, no filters.
Channel 3: 'EMG 3', 9373 values, raw ADC, no filters.
Channel 4: 'EMG 4', 9373 values, raw ADC, no filters.
Digitals combined (event=16, d=8, c=4, b=2, a=1): 9373 values, .

-24	-31	109	239	31
37	-83	51	225	31
29	-148	6	-320	31
-3	-247	-412	149	31
-31	-200	460	354	31
-4	-72	2600	164	31
31	108	1166	537	31
118	127	-728	859	31
164	64	-314	568	31
-12	174	89	385	31
-62	169	-451	-279	31
4	73	-741	-1812	31
-112	71	-651	-1597	31
-156	20	-416	-430	31
-58	-11	-886	755	31
-40	12	-1359	1182	31
-37	-10	52	-171	31
-29	-4	962	-515	31
45	3	1191	517	31
102	-7	713	481	31
29	2	451	338	31
7	12	374	310	31
29	15	-469	-462	31
28	1	-729	-135	31
27	-4	-527	537	31
43	-11	-5	423	31
119	-26	108	159	31
117	-21	-58	-172	31
-25	-11	-225	-242	31
-49	-15	-274	-170	31
-19	-15	-269	-196	31
-26	-9	52	-279	31
-103	-16	726	-146	31
-299	-27	564	-48	31
-17	-25	-17	-189	31
601	-15	-65	-250	31
263	-16	554	34	31
-571	-8	417	131	31
-319	-8	-363	-17	31
60	-30	-687	231	31
43	-36	-1241	318	31
205	-54	-618	629	31
114	-47	739	880	31
103	-8	365	71	31
72	24	-289	-662	31
-9	69	312	-817	31
47	64	672	-1229	31
43	11	163	-2005	31
-14	-23	-450	-1542	31
-120	-16	-247	-152	31
-75	-16	427	595	31
7	-11	804	1754	31
124	25	1624	1488	31
65	16	1466	1658	31
-46	39	-1	2066	31
39	74	-1800	307	31
-49	32	-2919	1200	31
34	7	-2163	589	31
123	-37	-465	-723	31
26	-60	1185	-937	31
15	19	1067	-1682	31
-87	49	242	-193	31
-71	150	349	642	31
12	273	328	56	31
175	143	422	-963	31
187	52	-150	-1366	31
-101	31	-305	-771	31
-213	-48	901	870	31
-137	-63	1100	457	31
-88	-105	924	-2930	31
-80	-146	275	-3708	31
8	-152	-714	-394	31
17	-97	-960	4000	31
63	-19	-1284	4000	31
86	57	-1256	3273	31
47	161	-321	1334	31
51	134	-225	-227	31
-25	19	-690	-1967	31
-16	19	975	-2670	31
-36	99	882	-2392	31
-11	82	-572	-1402	31
36	46	-81	925	31
-15	31	91	1993	31
-119	-39	555	789	31
-221	-78	1127	-426	31
-149	-72	26	-1680	31
26	-47	-877	-1353	31
127	-16	-472	127	31
40	12	-269	1136	31
46	21	774	1364	31
27	3	1079	688	31
-88	6	693	3	31
-2	-27	418	-924	31
42	-55	-365	-164	31
32	-57	-505	758	31
2	-116	-708	655	31
-11	-126	-314	-272	31
-15	-104	330	-1199	31
-14	-51	866	-747	31
141	72	951	-277	31
67	137	643	-196	31
-105	107	-161	-382	31
2	-14	-1858	165	31
39	-124	-1632	333	31
9	-79	209	871	31
42	-59	693	1235	31
65	-88	480	352	31
159	19	830	-33	31
177	62	81	-1052	31
-21	-17	-1646	-1512	31
-136	-12	-787	-1236	31
-39	44	1414	-1344	31
9	-81	1810	-1079	31
-63	-180	338	-247	31
51	51	-1667	603	31
165	244	-1065	1112	31
-51	294	373	620	31
-211	226	412	-159	31
-212	134	-149	447	31
-141	99	-433	1235	31
-9	-26	174	1074	31
122	-61	325	-630	31
116	-76	179	-1868	31
13	-53	-377	744	31
45	6	-487	1191	31
40	27	1065	-2402	31
-2	37	1591	-2817	31
145	-57	640	-595	31
61	-75	-610	3516	31
-60	-66	-997	4000	31
44	-94	-350	230	31
-32	-95	-896	-1736	31
-47	-17	-1812	944	31
-5	150	-1075	1695	31
-34	203	390	117	31
-110	157	613	-1417	31
-209	66	362	-321	31
-159	-14	357	1028	31
36	-16	105	1150	31
119	-62	931	609	31
-229	-160	1235	-1999	31
-244	-225	440	-3303	31
275	-273	-1011	-2659	31
388	-314	-2025	-1639	31
123	-290	-37	-315	31
-69	-233	767	1006	31
36	-175	-616	2118	31
77	-84	-352	1250	31
-86	47	-195	1560	31
45	157	19	2549	31
265	190	1534	583	31
-71	231	1801	902	31
-468	264	995	295	31
-265	300	678	177	31
64	400	274	1377	31
92	443	-343	-935	31
-112	347	-392	-1570	31
62	289	-326	-2077	31
314	246	-450	-3453	31
144	86	121	-2724	31
86	2	215	890	31
109	-39	-1076	4000	31
145	-76	-1832	3421	31
54	-117	-1189	818	31
6	-201	-196	-1036	31
176	-242	590	-2830	31
58	-267	1037	-3089	31
-117	-278	711	-3356	31
-163	-282	-468	-2707	31
-13	-240	-304	-1286	31
149	-89	1153	1899	31
-175	91	1061	4000	31
-189	217	537	3836	31
49	283	-1	3365	31
38	236	-534	1927	31
72	115	-731	-1366	31
25	-15	-865	-3278	31
29	-165	-1016	-1452	31
-102	-159	-1116	-237	31
-101	-114	141	-223	31
44	-165	593	187	31
35	-81	76	-776	31
62	-75	539	-1114	31
-61	-133	793	-847	31
-48	32	433	-1950	31
-94	121	551	-2476	31
-79	-1	1022	863	31
-12	-96	1464	2261	31
-74	-148	1218	1922	31
-44	-139	-29	1627	31
-106	74	-527	339	31
62	279	-1085	2181	31
200	270	-2222	1302	31
167	194	-2446	-698	31
15	112	-1211	-719	31
-125	19	150	-965	31
53	-5	-126	-1296	31
51	53	-94	-529	31
1	100	37	1966	31
166	55	-1162	1370	31
96	-17	-393	-1551	31
-141	-28	2598	-2678	31
-215	-94	3203	113	31
-195	-114	1250	2694	31
-89	-11	-774	2109	31
44	42	-2411	248	31
109	60	-2283	853	31
103	24	-198	1391	31
28	-61	1287	-939	31
45	-111	962	-1318	31
68	-140	626	-1287	31
-94	-124	645	-1034	31
55	-95	789	-1220	31
184	-67	1072	-1705	31
-164	-51	369	-1437	31
-234	-16	-839	-791	31
-196	13	-65	465	31
4	-49	1447	601	31
34	1	162	1552	31
-127	35	-1346	664	31
144	16	-714	-1167	31
-78	141	-46	178	31
-254	151	-864	955	31
-9	68	-1185	684	31
97	49	37	162	31
282	33	934	-1423	31
320	-38	-41	-1234	31
171	-95	-447	-567	31
-99	-101	218	-1252	31
-265	-115	302	-257	31
-151	-140	673	-838	31
-94	-185	848	-953	31
-2	-99	664	2046	31
74	71	-268	4000	31
21	97	-257	2957	31
-78	21	61	-406	31
-77	-97	-122	-7	31
36	-184	-310	-981	31
-111	-185	-1107	-2827	31
-217	-78	-976	-2902	31
-17	172	-159	-1065	31
302	354	279	4000	31
269	425	43	4000	31
141	425	114	1949	31
193	217	410	-1087	31
-73	28	605	-2332	31
-109	-82	693	-1294	31
-12	-129	121	-1337	31
-14	92	-280	-1002	31
72	170	-382	-174	31
-94	-89	-438	840	31
-255	-227	-482	1436	31
-122	-148	-388	-1448	31
141	-177	274	-1467	31
66	-211	508	-2200	31
-83	-144	-395	-2371	31
102	-54	-1168	851	31
220	80	-649	3574	31
279	137	325	4000	31
156	99	932	2034	31
57	221	972	-476	31
141	441	675	-2058	31
-54	348	-532	-1729	31
-309	167	-1093	-1177	31
-216	129	643	-365	31
-82	102	1149	978	31
-75	-1	92	156	31
57	-114	-416	-933	31
-151	-167	440	-2014	31
-370	-200	1065	-665	31
-25	-58	437	-1075	31
138	94	-241	2240	31
122	175	-440	4000	31
200	245	-89	1187	31
171	137	-414	-1068	31
54	-36	52	-4000	31
-97	-138	310	-2346	31
-9	-174	141	2371	31
33	-158	-104	4000	31
-96	-110	-1504	2768	31
-31	-119	-2202	-2488	31
152	-175	-966	-2826	31
95	-220	1994	-4000	31
-138	-322	1649	-2413	31
-91	-373	-527	814	31
-37	-272	-1215	4000	31
102	-79	-1041	3967	31
71	-21	646	-628	31
-310	-22	473	-1103	31
-177	184	-362	-2168	31
181	293	277	-1335	31
142	224	992	375	31
-92	180	796	1487	31
-175	199	-314	2042	31
-22	195	-614	-549	31
227	123	-533	-1742	31
108	106	-262	-2162	31
29	-13	-267	-2330	31
174	-67	124	-676	31
9	-32	1140	3022	31
-58	0	430	2113	31
-111	141	-193	-990	31
-16	81	362	220	31
138	-99	979	-1222	31
-14	-283	1294	-1355	31
118	-372	757	1492	31
145	-278	-1223	2367	31
-11	-64	-1691	3549	31
24	255	-704	2391	31
8	340	-220	-269	31
142	239	66	-1626	31
344	114	-480	-2046	31
164	2	-213	-1497	31
-235	-18	188	-1350	31
-237	-57	342	-1287	31
-164	-131	460	-615	31
-64	-178	734	-669	31
67	-169	783	-1098	31
-161	-140	-703	-1100	31
-116	-76	-922	58	31
72	-12	699	2487	31
-25	-17	684	2313	31
-139	-31	-601	-2018	31
26	-39	-179	-4000	31
212	-24	82	-2597	31
-52	-45	-337	553	31
-96	-91	-106	4000	31
75	-91	-176	4000	31
-84	-112	156	2417	31
-133	-144	250	-615	31
-231	-171	-102	-1358	31
-144	-141	277	-433	31
56	137	673	1090	31
-137	361	96	1876	31
-84	229	-529	281	31
89	170	-562	384	31
116	276	-82	289	31
74	366	19	-952	31
186	505	-410	-1158	31
370	514	-115	-3072	31
109	244	705	-4000	31
29	-19	929	-3951	31
47	-149	309	40	31
-134	-227	-333	4000	31
50	-125	-1178	4000	31
162	-27	-1199	2837	31
0	-102	-332	828	31
-355	-82	107	-1768	31
-319	30	341	-610	31
-42	32	672	231	31
21	17	871	-51	31
77	10	161	-647	31
6	-39	-225	-1625	31
408	-74	-79	-3475	31
226	-145	236	-4000	31
-305	-190	701	-2895	31
31	-159	1208	232	31
199	-106	1619	4000	31
31	-52	-894	4000	31
-82	-51	-3500	1997	31
-24	-71	-1776	423	31
4	-45	-19	-2256	31
-74	75	310	-1375	31
-162	137	786	-965	31
-184	56	639	-1808	31
-157	40	819	-239	31
-200	46	648	-1471	31
-158	14	375	-1264	31
91	14	98	1987	31
354	-47	-436	2817	31
240	-27	-347	575	31
188	32	-1466	-2016	31
109	-12	-2777	-607	31
54	-31	-989	-209	31
111	-53	2138	-1471	31
-54	-51	2152	-365	31
6	-84	578	-455	31
118	-94	447	-874	31
69	-73	437	197	31
-113	-64	154	1282	31
-122	41	-136	2257	31
2	82	-202	1863	31
127	82	719	1016	31
167	12	1341	-143	31
-357	-95	330	-664	31
-352	-59	-1135	1415	31
9	12	-1452	956	31
9	110	-879	-1237	31
59	187	-440	474	31
-99	223	175	1634	31
61	210	187	2248	31
260	81	-412	505	31
-3	-68	-19	-2003	31
-54	-152	167	-588	31
102	-160	134	-1480	31
194	-153	167	-1437	31
85	-57	-128	-958	31
-153	59	125	-1386	31
-134	106	305	-1942	31
-255	175	392	-2808	31
-237	115	323	-1200	31
73	-4	20	1233	31
42	-14	614	3392	31
-12	72	1317	3004	31
21	187	254	2770	31
68	104	-1842	1955	31
82	-77	-2023	592	31
172	-127	-834	879	31
100	-7	-353	-303	31
-90	200	-24	-1683	31
-122	212	1084	-1724	31
-76	83	775	-1620	31
85	46	183	-1449	31
81	23	347	1389	31
-25	-53	-192	1302	31
-195	-107	86	-1868	31
-322	-100	330	-994	31
-364	-127	396	-701	31
-414	-194	546	-672	31
-257	-116	235	-342	31
91	-28	-585	-616	31
435	-77	-215	-55	31
398	-159	1124	-1118	31
317	-159	475	-2431	31
384	-74	-581	-1573	31
314	-13	-434	895	31
405	58	-564	1588	31
148	50	-578	4000	31
-198	40	515	4000	31
22	17	706	806	31
-61	-71	550	420	31
-146	-76	59	1541	31
6	-127	-1212	3374	31
-98	-115	-1585	287	31
-139	8	-1190	-3616	31
-37	79	-332	-3035	31
86	104	2	-2130	31
19	81	307	-861	31
-204	75	458	-1515	31
-430	86	663	-334	31
-415	198	196	335	31
-106	240	-266	-206	31
224	62	236	-1147	31
61	4	-638	-2908	31
-101	-88	-746	-2887	31
348	-198	1017	-641	31
257	-128	2215	2874	31
-121	-139	1767	3646	31
-44	-139	40	4000	31
137	-91	-410	4000	31
192	-72	400	880	31
36	-16	-463	-477	31
-11	0	-1997	-2409	31
-71	-23	-2353	-2835	31
-158	-32	-1120	-1249	31
-35	-8	-24	-1195	31
-24	13	395	-1159	31
-104	129	1415	-748	31
-161	319	1914	531	31
-112	289	1410	1875	31
151	214	-26	1499	31
235	179	-832	-1542	31
-42	12	-489	-2273	31
-235	62	319	-2311	31
-23	292	355	-623	31
217	309	-145	2740	31
23	135	7	3393	31
-73	-92	373	1148	31
72	-280	334	-1063	31
85	-438	-858	1493	31
262	-485	-1021	207	31
284	-430	-500	-2036	31
-251	-296	-687	-2164	31
-1304	-84	-754	-2095	31
-1937	73	286	-399	31
-1443	139	1004	-754	31
-542	290	464	1291	31
930	584	493	3965	31
1594	672	350	1164	31
838	401	-418	-2018	31
297	144	-303	-729	31
-44	93	637	310	31
322	6	344	1289	31
859	-62	-460	1139	31
934	-97	-72	-529	31
720	-164	453	-1411	31
390	-173	210	-3231	31
370	-200	265	-2420	31
162	-194	979	-663	31
69	-137	1034	-828	31
32	-99	409	-216	31
-49	-112	-1115	3704	31
-29	-112	-2697	3133	31
-91	-186	-2104	783	31
-21	-240	-594	4000	31
-112	-69	419	2001	31
-262	39	1390	-2286	31
-72	94	1396	-1692	31
80	82	473	-684	31
-131	78	-146	537	31
-345	86	-602	421	31
-410	-73	-768	-1519	31
-337	-99	-274	-1390	31
-200	-44	1035	-682	31
-164	-39	1922	-1126	31
-125	-38	1884	-842	31
106	-31	434	2201	31
219	46	-2153	4000	31
39	147	-2693	-216	31
-59	136	-2022	-1695	31
-200	28	-600	605	31
-109	14	734	888	31
67	28	638	321	31
12	19	257	-1990	31
-49	-19	47	-3580	31
-261	-51	832	-2483	31
-116	8	1729	373	31
132	56	834	4000	31
-147	122	-783	3305	31
-357	99	-204	-1763	31
110	-66	803	-1693	31
215	-121	500	-1560	31
-464	-140	-170	-441	31
-368	-135	-1353	171	31
-195	-12	-1266	-1691	31
84	44	-311	1638	31
385	4	-479	2599	31
128	-14	-651	-132	31
273	-24	14	-928	31
59	-128	212	-1747	31
-94	-224	721	287	31
-288	-234	2319	1401	31
-518	-375	1462	-1066	31
-121	-476	-1385	111	31
13	-330	-2309	1111	31
14	-46	-664	212	31
261	329	894	1742	31
351	474	821	1845	31
144	539	581	-784	31
49	869	469	-1594	31
232	834	277	-1197	31
163	473	284	-1202	31
-576	182	252	-1280	31
-1046	-113	553	-1955	31
-403	-99	693	-545	31
269	21	-956	1956	31
308	89	-2015	2013	31
148	242	-1272	-1078	31
166	267	-359	-1230	31
395	121	698	2561	31
212	-6	619	2136	31
133	-85	442	91	31
358	-220	527	-115	31
304	-297	104	-880	31
71	-360	-142	-1179	31
51	-330	297	-771	31
454	-202	1080	-1115	31
621	-134	500	798	31
347	-36	-380	3426	31
-241	-58	-844	2521	31
-522	-101	-342	-302	31
-34	-89	-281	-2135	31
362	-154	-1158	-2158	31
125	-164	39	-1788	31
-94	-157	1387	655	31
52	-96	751	2228	31
126	-18	-914	-309	31
38	-41	-1168	197	31
-458	-19	-229	1426	31
-302	-15	357	-815	31
651	-8	420	983	31
484	121	-388	1860	31
-251	309	-287	-457	31
-292	304	269	-1186	31
-136	136	132	-883	31
-62	59	-202	-666	31
-62	-96	-469	-2295	31
-233	-179	-87	-2722	31
-167	-134	174	-1641	31
-101	-139	640	870	31
-217	-41	791	3489	31
-242	87	-136	2062	31
-242	126	-128	613	31
-254	33	194	1133	31
101	-100	-382	-1171	31
367	-187	-96	-2916	31
143	-244	1227	-2379	31
135	-231	1042	-860	31
29	-165	477	2784	31
-90	91	421	4000	31
-112	340	-906	2336	31
-222	473	-1356	-2421	31
-120	547	-433	-1161	31
-38	236	-811	454	31
33	-147	-1543	101	31
84	-111	-1278	665	31
290	6	106	-905	31
266	10	1348	-2903	31
-515	63	930	-1901	31
-488	-50	403	-1170	31
277	-210	839	-2395	31
-220	-217	1621	-1935	31
-622	-213	1262	-219	31
166	-139	828	1258	31
277	-30	-417	4000	31
123	81	-1913	4000	31
470	174	-1484	4000	31
428	252	-1413	1439	31
344	273	-907	-2422	31
149	127	-401	-1704	31
-237	-17	-94	-1430	31
-199	-77	577	-1337	31
-31	-56	774	-719	31
84	-46	776	-1349	31
93	-134	220	-716	31
-76	-175	52	-1046	31
-68	-195	897	-1226	31
41	-174	1469	-1438	31
-31	-82	225	-367	31
-51	-5	-281	795	31
-127	103	352	285	31
-159	189	-332	-313	31
14	234	-486	125	31
-22	183	-655	845	31
-4	55	-1403	573	31
116	-18	-1338	544	31
197	8	-436	2125	31
162	42	-12	2669	31
-73	15	-80	623	31
-35	-27	627	154	31
-12	-120	629	-142	31
-217	-49	-332	-761	31
-297	126	-781	-810	31
-102	129	91	-1543	31
59	10	1553	-2241	31
-194	-71	2203	-2679	31
-207	-97	1463	-1098	31
106	-152	-204	2556	31
214	-114	-907	3215	31
-204	-67	-759	766	31
-370	62	-755	-112	31
230	185	-410	359	31
305	48	-535	1963	31
-89	66	-305	1283	31
168	119	-74	-1181	31
329	75	118	-1786	31
63	21	681	-1960	31
-204	-234	395	-1139	31
-1024	-382	221	-587	31
-1282	-383	-141	517	31
-337	-294	58	1759	31
182	-16	806	389	31
182	293	681	-172	31
455	526	352	560	31
178	464	-522	658	31
-100	307	-371	1936	31
122	220	932	883	31
366	90	123	-735	31
991	28	-1278	-326	31
1012	-22	-1212	-318	31
146	-57	-141	-452	31
-769	-143	412	-1075	31
-991	-207	-79	-760	31
-228	-172	-149	233	31
600	-121	277	1644	31
863	-54	588	710	31
523	-146	-543	-2082	31
445	-148	-1027	-3857	31
768	-30	-14	-1950	31
618	-29	19	3108	31
37	-66	-85	3935	31
-345	-89	-165	1581	31
44	99	-27	-778	31
271	214	355	-792	31
-393	101	477	-657	31
-679	45	426	-458	31
-376	61	220	372	31
-151	12	204	-741	31
97	0	-116	-591	31
179	97	17	955	31
159	-77	670	1590	31
-207	-265	667	-779	31
-365	-185	292	-2379	31
-42	-81	19	-2183	31
-83	112	-1425	-597	31
-27	334	-2544	826	31
-24	395	-910	294	31
-242	263	1243	-193	31
-100	8	1490	-266	31
82	-142	719	2604	31
-271	-155	1074	3061	31
-185	-167	605	250	31
-96	-94	-930	97	31
-207	-76	-998	1192	31
243	-61	-653	567	31
17	153	-514	-801	31
31	277	-197	-1780	31
71	223	698	-1361	31
-178	96	962	828	31
-15	-16	75	1597	31
-227	-77	-1112	6	31
-249	-67	-1235	-1882	31
-184	5	219	-1164	31
-23	-61	355	-1166	31
21	-139	591	-2441	31
-167	-146	957	-2664	31
125	-224	407	-2056	31
340	-277	764	1302	31
537	-272	668	4000	31
463	-187	-67	2630	31
-11	-87	-1292	1199	31
-162	24	-2602	1439	31
-72	179	-845	-2300	31
102	231	2503	-4000	31
29	102	1637	-2302	31
-344	17	-779	2081	31
-635	166	-1453	4000	31
-156	288	-846	3733	31
302	325	121	-1094	31
186	208	-38	-2236	31
283	4	592	-1602	31
157	-52	786	162	31
26	-89	645	1045	31
-45	0	580	151	31
85	64	-43	-1990	31
224	42	144	-1462	31
-195	135	-121	388	31
-91	103	-335	1055	31
84	-43	-208	295	31
-153	-112	163	-1032	31
15	-222	212	-767	31
250	-225	-200	-1257	31
49	-145	419	-751	31
-350	-175	547	-1585	31
-216	-138	-327	-2603	31
-24	-69	-1496	2073	31
-195	-2	-1439	4000	31
-82	48	769	3677	31
191	82	1250	1412	31
287	142	-452	-101	31
139	102	-1330	-971	31
67	21	-977	-562	31
287	-100	124	-628	31
87	-122	1108	-734	31
-366	-52	811	-746	31
-237	-51	-52	-1349	31
-517	-106	-345	-1048	31
-829	-161	-890	-975	31
-137	-58	-397	-1069	31
74	67	1212	-851	31
-49	147	2611	116	31
-3	94	2166	1440	31
-157	38	285	2065	31
-89	115	-1298	2377	31
-51	174	-2215	1898	31
207	145	-887	-443	31
-126	-28	161	-1930	31
-1168	-99	141	-2300	31
-1267	-117	-979	-2271	31
-772	-7	-2344	-157	31
438	259	-16	3145	31
1761	361	2499	4000	31
1917	234	1376	1212	31
1581	32	347	-1987	31
1059	15	734	-1217	31
821	-13	444	-2307	31
646	-42	948	-2220	31
230	-49	1167	202	31
8	-31	-673	2021	31
-178	113	-2319	2100	31
-254	111	-1988	1101	31
-526	-22	-569	-363	31
-428	-88	-69	-1083	31
-126	-91	260	-1172	31
-249	-145	114	-1388	31
37	-162	-1077	46	31
177	-159	-714	1297	31
73	-181	1716	1582	31
151	-168	1973	1367	31
29	-160	-44	-281	31
-92	-134	-112	-993	31
-164	-173	319	-1018	31
-127	-217	240	-1765	31
-105	-195	575	-2564	31
-195	-99	886	-1673	31
-262	74	679	874	31
-206	278	-759	1545	31
520	491	-2372	527	31
608	561	-2056	1627	31
-738	510	651	3895	31
-910	357	917	2682	31
-115	190	-1370	533	31
-112	131	-665	-1435	31
-15	-66	413	-1545	31
182	-152	817	530	31
-141	-113	897	-523	31
-452	-162	148	-603	31
-294	-124	182	-219	31
-79	-112	-242	-1396	31
-53	-17	-787	-181	31
-150	14	-400	-198	31
-9	-134	386	-623	31
120	-212	724	-1497	31
96	-316	1049	-3448	31
264	-362	1094	-3721	31
156	-273	412	-1147	31
59	-126	59	4000	31
-2	88	-156	4000	31
-8	328	-521	660	31
24	349	-965	-2233	31
-191	46	-916	-1796	31
-349	-90	-1454	-2822	31
-374	-49	-2098	-3628	31
-181	-109	672	-2958	31
69	-126	2596	-310	31
339	-196	1875	3338	31
340	-180	716	4000	31
33	-13	-806	1501	31
36	134	-876	270	31
104	368	-453	344	31
284	465	491	-442	31
305	297	24	-489	31
-32	135	-450	667	31
163	62	-520	1306	31
-1	-39	-2035	-319	31
-86	-37	-1536	-879	31
142	-60	1137	-318	31
-109	-246	2102	117	31
-40	-90	684	1490	31
-34	245	778	720	31
-142	283	1085	-890	31
-186	110	295	-781	31
83	-21	79	-506	31
399	32	181	-499	31
94	63	-204	-500	31
-339	28	-727	-508	31
-298	42	-247	887	31
-54	37	22	3167	31
-14	-93	-345	3233	31
109	-187	-804	1284	31
204	-174	-536	-945	31
65	-212	600	-1194	31
-320	-234	458	-790	31
-311	-198	369	-285	31
-294	-86	589	307	31
-711	-17	125	-1597	31
-487	-14	-24	-1277	31
144	41	204	3541	31
407	75	69	4000	31
392	59	-881	987	31
320	27	-1554	439	31
68	29	-1048	-36	31
-443	-79	-414	-1302	31
-851	-212	-729	-1647	31
-557	-174	-124	-1551	31
95	-134	656	-1825	31
552	-33	857	-2259	31
650	258	870	-2435	31
600	326	1420	-1962	31
605	155	1711	505	31
522	151	-7	2461	31
364	162	-1055	2698	31
137	274	-1715	858	31
-82	320	-1476	418	31
-104	120	199	1723	31
155	40	980	119	31
72	-31	1055	-395	31
-7	-114	474	488	31
-2	-118	-268	711	31
170	-89	-531	614	31
676	-61	-511	-1088	31
-110	-74	-29	-1089	31
-517	-90	-49	-1955	31
149	-162	-66	-3514	31
-92	-176	460	-2817	31
-190	-141	558	-134	31
-88	-104	-55	3702	31
-31	-51	-179	2874	31
-24	-57	1489	469	31
-281	6	1742	-96	31
79	82	-397	614	31
319	123	-1496	1915	31
-124	151	-953	1533	31
-345	92	-463	42	31
-305	-26	-1194	-1096	31
-102	-132	-891	-1678	31
48	-200	-107	-2714	31
7	-204	-301	-2141	31
136	-149	-276	-597	31
14	-102	1018	1366	31
-157	59	2469	1957	31
-112	177	1480	1812	31
-66	179	19	1188	31
-162	193	-890	161	31
-153	66	-585	-518	31
46	-66	531	-1819	31
91	-220	836	-251	31
134	-285	235	-1009	31
-142	-122	-1658	-2281	31
-420	101	-2035	-1119	31
-498	286	216	-141	31
-269	325	718	2150	31
69	393	-377	2364	31
46	300	308	-279	31
159	74	1315	-2200	31
179	-3	877	-1487	31
347	-21	57	-845	31
377	82	57	-1033	31
-52	155	53	1630	31
159	103	-327	4000	31
295	39	-761	2483	31
172	11	-535	-542	31
25	-62	32	1302	31
-85	-101	-642	478	31
71	-97	-1461	-557	31
-205	-132	-709	-644	31
-327	-152	59	-1722	31
-85	-263	503	-2423	31
127	-246	1789	-2797	31
82	-75	1084	-944	31
30	-40	-598	1850	31
70	-52	-417	2834	31
-95	2	-437	714	31
-105	-106	11	526	31
120	-246	649	1372	31
398	-43	353	-434	31
29	240	-424	-1574	31
-382	321	-974	-2657	31
-268	220	141	-1770	31
-122	169	968	-811	31
142	128	295	-311	31
146	-10	-626	782	31
114	-11	-291	1860	31
70	6	669	1932	31
-166	12	78	-274	31
-289	-15	-36	-897	31
-297	-70	412	-1086	31
77	-104	518	-1127	31
580	-171	755	901	31
324	-163	588	1077	31
-2	-154	904	397	31
354	-56	292	1537	31
364	87	-1207	-1032	31
99	79	-1534	-2429	31
-13	17	-1376	-1615	31
48	-91	-1009	-1155	31
-24	-92	-166	1166	31
-395	-18	-466	2404	31
-367	-49	-1359	3049	31
-309	37	-239	263	31
-49	64	1819	-142	31
62	24	1963	2481	31
-134	106	708	2864	31
-18	154	936	882	31
-192	145	856	-2877	31
-92	-25	-502	-1526	31
151	-27	-661	-666	31
355	135	-304	-1608	31
393	224	-556	-1652	31
-254	278	-327	-2511	31
-216	134	362	-2186	31
51	36	197	-1356	31
-355	5	17	2515	31
-335	-92	-190	4000	31
275	-158	-696	2599	31
388	-111	-636	-506	31
-473	-26	-105	-1534	31
-686	-69	277	-1136	31
93	-82	451	-2163	31
-17	-36	491	-1635	31
-138	21	61	-395	31
302	-54	-213	-890	31
264	-184	69	138	31
395	-78	638	2367	31
176	98	841	1129	31
194	252	656	-7	31
370	192	377	2763	31
91	50	-639	3327	31
-54	94	-1760	3223	31
-407	91	-1860	21	31
-304	60	-271	-3053	31
-20	-49	728	-1655	31
103	-164	112	-1314	31
-107	-121	-397	-802	31
-89	-62	-472	-1274	31
221	21	284	-2130	31
-71	28	692	-3368	31
-209	-141	1373	-2810	31
-82	-255	1618	194	31
301	-265	281	3397	31
220	-182	-402	4000	31
-214	17	-656	3231	31
-248	164	-897	-2282	31
51	207	-867	-3892	31
463	150	-733	-2505	31
163	79	-17	-448	31
-111	-20	811	2034	31
-17	-169	894	1115	31
-36	-229	813	-1712	31
-89	-242	322	-1870	31
-24	-257	560	-1415	31
195	-97	358	1243	31
104	214	-1371	3588	31
-9	189	-1562	3276	31
141	6	-648	197	31
19	202	-107	-836	31
-279	360	-632	501	31
-137	212	-16	-948	31
153	154	659	-678	31
-96	177	857	-492	31
-124	89	1685	412	31
-86	18	1375	1629	31
-199	-33	874	387	31
-368	-56	-799	-2181	31
-808	21	-2134	-3554	31
137	-6	-1144	-1412	31
1049	-31	496	-149	31
754	-6	820	-414	31
390	-40	14	-875	31
-154	-46	-437	923	31
-24	-82	-990	4000	31
-26	-89	-590	4000	31
-84	-24	142	3416	31
155	22	743	-1457	31
-140	6	1433	-3133	31
-309	-50	768	-3099	31
-252	-47	-433	-2705	31
212	-58	-1140	-3025	31
179	0	-781	-1105	31
-134	117	-384	3832	31
-260	83	-84	4000	31
-430	-4	97	2278	31
59	-70	-278	-1740	31
49	-62	415	-3345	31
-372	-124	656	-4000	31
-14	-298	297	-4000	31
433	-364	367	-791	31
354	-331	719	4000	31
311	-202	1132	4000	31
77	37	-105	4000	31
-157	57	-1870	-131	31
60	-167	-1572	-2697	31
209	101	-553	-1517	31
87	531	272	-951	31
-330	343	601	-1404	31
-297	184	-101	-148	31
-36	334	-157	-601	31
-101	233	157	-535	31
79	164	849	-658	31
57	129	901	-261	31
-317	-27	-419	1361	31
-430	28	-1284	991	31
-337	126	-573	-385	31
-282	180	860	-2249	31
-215	-57	1149	-4000	31
-250	-291	1182	-4000	31
-696	-140	968	-920	31
-829	-8	-166	4000	31
-347	184	-1930	4000	31
-192	302	-1844	4000	31
-14	176	773	2075	31
750	46	1535	-391	31
1154	-19	472	-2078	31
1275	-42	569	-2614	31
1011	-99	854	-3029	31
-251	-124	-221	-213	31
-420	-45	-1265	1354	31
552	-25	-1118	2622	31
623	-113	-544	2457	31
901	-107	-287	114	31
1062	-61	76	-275	31
335	-53	347	743	31
79	-50	350	2031	31
23	6	119	608	31
383	43	-674	-2466	31
421	-67	-480	-3931	31
-334	-147	363	-1232	31
-507	-146	596	2774	31
-649	-134	183	2942	31
-420	-125	-112	1116	31
84	-79	-33	-68	31
-206	-24	162	-1071	31
-430	-49	399	-2053	31
-310	-106	242	-2572	31
-274	-159	628	-3475	31
-408	-144	1177	-1571	31
-334	-51	508	2523	31
40	29	-332	3832	31
-78	47	-631	4000	31
-400	131	-1440	3525	31
-305	246	-1581	-1133	31
334	196	-412	-1158	31
505	195	586	-248	31
-305	163	311	-772	31
-445	8	-546	-394	31
-16	-18	-769	-2269	31
-66	-134	-810	-2670	31
-16	-394	217	-2429	31
-26	-689	1343	-1951	31
-178	-766	834	-469	31
-122	-316	360	1569	31
-120	241	-84	3138	31
149	664	-265	1982	31
375	819	353	-546	31
187	576	348	1192	31
146	486	-156	3712	31
-80	433	-718	-636	31
-241	106	-925	-2049	31
277	-92	-114	-417	31
194	-137	700	-109	31
-191	3	919	792	31
-62	200	415	-417	31
10	107	-89	-821	31
180	-84	-163	-958	31
-129	-232	-161	-1883	31
-208	-355	280	-2504	31
215	-344	518	-2596	31
170	-253	687	495	31
215	-150	867	4000	31
164	129	324	4000	31
150	327	-1132	517	31
137	246	-1662	-2720	31
47	190	-546	-2315	31
79	135	79	-1006	31
31	-16	603	89	31
-18	-96	592	314	31
-195	28	-222	208	31
-171	122	-366	470	31
-131	14	-550	395	31
-136	-97	-174	-26	31
-169	-221	133	-352	31
-349	-276	-87	-524	31
-171	-141	270	-757	31
-4	-67	764	-1232	31
169	-87	442	-2219	31
294	-64	-1644	-2470	31
147	-17	-1210	-1882	31
-2	-2	1508	1836	31
139	-26	1244	4000	31
574	39	-9	3181	31
147	96	-468	-2450	31
-354	46	-295	-3181	31
-41	59	-99	-819	31
-212	150	-41	1996	31
-381	139	469	1076	31
-63	102	912	-1	31
-79	-9	440	-97	31
-201	-227	-285	137	31
-157	-272	-493	2804	31
54	-180	-661	2784	31
102	-81	-661	831	31
142	-11	-399	-767	31
335	-4	-779	-1870	31
154	32	-1269	-886	31
48	111	371	-156	31
205	122	1349	79	31
-100	100	939	563	31
-184	120	654	-593	31
455	135	-174	-1396	31
-46	140	-22	363	31
-395	40	503	-78	31
-10	-127	847	-1490	31
-363	-234	303	885	31
-176	-296	-1022	1343	31
-223	-214	-493	-1667	31
-322	-14	587	-2261	31
-122	131	435	-717	31
-47	309	-12	1417	31
244	396	1013	2529	31
200	178	2140	530	31
-9	-42	168	171	31
133	-87	-2683	2020	31
420	-77	-2848	2338	31
28	24	-355	1802	31
232	101	580	1668	31
254	62	-481	498	31
-91	82	-402	-2781	31
408	4	-526	-1701	31
267	-77	-872	-270	31
-5	-64	-175	-1219	31
-300	-19	1057	-663	31
-119	120	901	-1084	31
-205	122	208	-281	31
-468	15	123	-434	31
154	-129	709	-1922	31
10	-302	1682	-3535	31
-189	-395	769	-3903	31
-16	-252	-841	-652	31
324	13	204	3611	31
308	97	1903	4000	31
120	64	-59	3775	31
240	37	-2051	-1297	31
-22	109	-2174	-3552	31
-87	171	-1503	-2988	31
124	272	-569	-2529	31
176	300	-496	-1748	31
-42	73	273	-470	31
-272	-31	913	264	31
-91	-18	1761	998	31
110	-93	1631	1737	31
-232	-266	700	1728	31
-327	-393	585	-297	31
-59	-252	-257	-1500	31
1	82	-812	-1231	31
6	109	-529	164	31
-216	-274	483	1491	31
-232	-415	369	1136	31
-754	-200	-1129	1693	31
-1282	98	-705	2199	31
-548	354	726	1624	31
-62	516	1085	-56	31
-54	618	598	-1106	31
-186	353	-941	-931	31
-259	167	-2146	-2043	31
300	107	-1847	-2419	31
887	-196	-593	-1808	31
1255	-50	1528	983	31
1342	167	1861	4000	31
1222	96	124	3184	31
697	107	-632	711	31
255	68	19	662	31
417	-56	1002	-733	31
124	-140	228	-1529	31
-453	-160	-693	-1397	31
-234	-155	-415	-174	31
498	-40	653	532	31
306	-5	1139	1719	31
-529	9	-1266	2915	31
-318	135	-1760	-27	31
-164	103	673	-2301	31
-417	14	1411	-900	31
-69	-30	932	811	31
-126	-98	378	1037	31
-309	-193	-287	807	31
-302	-247	-489	337	31
-196	-210	-816	-463	31
-54	-142	-701	-1109	31
-201	-47	-761	-1394	31
-14	-26	-322	-715	31
305	14	983	-399	31
132	42	516	-1169	31
-238	-53	459	-1660	31
-233	-46	836	-1560	31
-235	-27	177	-603	31
-255	-7	-337	3554	31
-164	51	-739	4000	31
-89	33	-503	836	31
-2	29	-405	-2214	31
-56	-26	-491	-1413	31
325	-75	-199	-1407	31
114	-144	-202	-1527	31
-331	-249	237	-1634	31
137	-107	1109	-638	31
105	104	942	605	31
330	202	-72	998	31
457	216	440	268	31
-70	94	744	-715	31
-92	-16	-423	-720	31
-164	-49	-1126	930	31
-103	-31	-503	1372	31
-85	-28	503	-222	31
-361	82	333	-169	31
-372	320	139	-412	31
-229	334	-757	-1407	31
-454	205	-1277	-1431	31
-1930	47	560	-362	31
-2397	-54	1566	2467	31
-586	2	560	3061	31
512	135	-388	1389	31
1119	377	46	880	31
1996	243	-92	-806	31
1646	-49	-952	-1138	31
1044	-13	-465	-136	31
992	-101	11	-571	31
588	-164	-126	-290	31
471	-184	-156	-671	31
375	-166	534	-970	31
99	-16	975	-15	31
235	-41	533	1058	31
102	-165	-200	2324	31
-98	-258	-148	1925	31
-168	-270	-83	-279	31
-463	-214	-1780	-687	31
-1142	-140	-1104	-146	31
-1705	-34	1333	-266	31
-852	73	1641	-476	31
335	107	318	-1142	31
695	169	-701	-1281	31
638	187	-575	-1217	31
-125	124	-235	-661	31
-212	145	591	-293	31
311	121	506	-515	31
352	36	-262	-290	31
541	-92	-916	-12	31
344	-111	-240	212	31
149	20	1065	397	31
220	5	-375	1606	31
5	-9	-1207	2654	31
-244	9	-24	2205	31
-111	-82	402	748	31
114	-17	875	-1425	31
14	120	779	-2702	31
114	36	869	-2346	31
91	-57	755	-389	31
85	-93	-172	1484	31
92	-78	-1310	1848	31
-1	-45	-2735	1288	31
106	11	-1272	-19	31
-313	130	779	-37	31
-631	76	1346	-303	31
-408	-34	893	-1367	31
-374	-39	107	-1349	31
-226	-18	611	-765	31
-87	4	1248	1588	31
-86	37	106	2073	31
210	14	-1689	1407	31
-278	-17	-1068	944	31
-1429	6	112	-507	31
-1830	-126	447	-500	31
-876	-302	318	-1582	31
404	-354	309	-1392	31
1109	-375	-52	-843	31
1273	-253	-407	-857	31
745	27	440	-263	31
894	310	1071	-452	31
993	667	632	-109	31
158	636	-239	-1317	31
-67	62	-695	-2714	31
104	-96	-627	-2556	31
-36	11	142	475	31
-27	-6	376	3914	31
32	0	-287	4000	31
29	57	-447	4000	31
81	227	-712	1654	31
-21	175	-967	-639	31
-116	82	-506	-4	31
-188	-77	-256	328	31
54	-237	-316	-687	31
49	-193	483	-978	31
-97	-192	1414	-1787	31
-105	-99	1358	-1856	31
-314	-21	952	-918	31
18	27	201	-965	31
-345	59	-871	-278	31
-933	157	-1295	1722	31
-247	297	-543	987	31
81	318	548	-781	31
24	249	773	-1803	31
-255	42	-206	-2627	31
-407	-67	-539	-1820	31
367	-91	-46	-787	31
372	-111	263	3022	31
350	-72	288	4000	31
751	-72	62	2876	31
530	-119	581	-655	31
44	-273	744	-1567	31
-705	-365	-195	-657	31
-239	-262	-1000	-310	31
580	-70	-1464	344	31
63	91	-460	-604	31
-1185	119	863	-893	31
-2164	145	704	-253	31
-1711	221	-54	-101	31
-437	190	-1343	-10	31
595	124	-545	98	31
663	112	751	-169	31
769	51	570	-254	31
1415	-39	385	480	31
1202	-122	332	-724	31
-71	-265	741	-1170	31
-1460	-318	425	178	31
-1312	-147	381	1170	31
-97	57	-520	1193	31
437	172	-1594	127	31
-387	230	-1137	-1031	31
-1227	86	-393	-1038	31
-416	-54	928	-335	31
774	6	1105	-28	31
1949	-24	760	299	31
2469	-22	633	183	31
1756	4	524	201	31
1732	-62	1143	-30	31
1580	-50	1327	-568	31
845	-7	205	-380	31
20	127	-1528	368	31
-1591	252	-2479	922	31
-2446	119	-1983	362	31
-1548	19	22	-52	31
-151	44	512	-58	31
-628	-49	62	-96	31
-1603	-59	367	27	31
418	-91	1118	240	31
2083	-164	1552	828	31
1470	46	-157	353	31
871	135	-1436	-2131	31
642	-160	-1431	-3711	31
647	-382	-624	-1285	31
-112	-283	142	2752	31
-863	-121	586	3289	31
-523	142	796	1116	31
277	377	326	-1221	31
270	241	-123	-1192	31
176	54	-165	1381	31
538	37	244	2028	31
-458	-94	415	1111	31
-637	-175	272	-788	31
1	19	-643	-1197	31
-80	217	-1268	250	31
-103	222	-1200	-179	31
-294	114	-81	-280	31
-182	104	1318	1421	31
-229	94	1180	1394	31
-254	138	697	249	31
-224	82	-246	-54	31
-307	-101	-605	-1673	31
-107	-148	-566	-1922	31
-332	-214	-100	-1650	31
-535	-139	741	-1815	31
-285	-25	891	-1357	31
-104	-79	353	-508	31
-56	-87	-358	2088	31
-290	-10	72	2577	31
-335	-24	-475	1929	31
151	-85	-1280	1953	31
292	-22	-1230	232	31
-94	96	-299	-538	31
-298	240	360	-1259	31
-160	159	295	-2823	31
-133	-52	964	-919	31
72	-25	1059	1650	31
320	41	545	2039	31
-54	50	147	991	31
-409	114	45	-1319	31
-78	220	-82	-1105	31
115	149	-262	70	31
4	-11	-87	-417	31
71	-91	69	-986	31
-64	-177	-506	-2015	31
-184	-220	-59	-2352	31
-334	-189	371	-1437	31
-301	-84	-302	30	31
60	-39	-590	3468	31
184	-78	-595	4000	31
135	-128	168	1332	31
36	-172	257	-89	31
-128	-68	9	568	31
-641	176	224	-337	31
-2145	288	747	-954	31
-4000	200	1050	-1114	31
-4000	142	402	307	31
-3867	77	-353	-26	31
-3340	1	-1693	-781	31
-3714	68	-1634	-234	31
-1462	-6	64	-8	31
4000	-172	1113	422	31
4000	-160	1533	-286	31
4000	-144	770	-1013	31
4000	-109	139	-1406	31
4000	-66	478	-1816	31
2929	-133	-390	-1702	31
1344	-175	-1833	194	31
243	-34	-1763	3982	31
-831	129	-162	4000	31
-1139	115	1654	207	31
-1182	145	1740	-2090	31
-508	281	783	-2372	31
-392	420	180	-1853	31
-508	396	-653	384	31
-736	155	-1228	1013	31
-974	-5	-555	359	31
-1214	-22	-482	1624	31
-1012	-154	-1618	1298	31
37	-245	-1564	-523	31
375	-144	420	-577	31
-302	-103	1799	-685	31
-1984	-91	810	-742	31
-2949	-87	-11	220	31
-1657	-146	377	723	31
128	-169	389	700	31
1525	-137	46	559	31
1446	-173	15	-24	31
-344	-305	-12	-167	31
-2069	-413	305	-547	31
-2517	-576	525	-574	31
-1961	-591	483	-267	31
292	-313	-18	-422	31
3521	33	-719	-666	31
3163	408	-289	-1407	31
1639	618	-688	-1371	31
1302	767	-1058	-608	31
370	656	417	357	31
131	379	1420	1838	31
-67	553	1661	467	31
-522	756	1132	208	31
-505	732	-113	4000	31
-197	435	-1311	2710	31
-199	102	-1917	-726	31
-337	42	-1080	-919	31
-268	-89	-207	-901	31
-422	-217	-47	679	31
-366	-255	56	74	31
-164	-312	247	-1397	31
-73	-340	483	-3235	31
-24	-368	398	-4000	31
-130	-314	128	-2700	31
-249	-230	456	2479	31
-104	-199	1113	4000	31
-6	-54	698	4000	31
-43	68	-1060	-126	31
-41	84	-1257	-2262	31
-317	88	-312	-3240	31
-564	-22	201	-3770	31
-361	-141	907	-3282	31
-92	-179	654	-1025	31
-111	-164	561	2339	31
-320	-170	625	4000	31
-390	-184	0	3561	31
-182	-88	-1212	1284	31
169	-14	-2388	1113	31
91	65	-1526	-2002	31
81	97	628	-2544	31
347	-126	1613	-596	31
99	-200	359	-218	31
-55	-81	-1466	-199	31
114	-56	-1405	568	31
121	85	286	1041	31
168	145	892	-395	31
440	132	683	-1880	31
113	145	1523	-1287	31
-469	6	1825	1691	31
-303	-61	560	3041	31
-62	26	-370	2397	31
244	91	-495	486	31
132	109	-974	-3249	31
-205	137	-765	-4000	31
136	-20	480	-2984	31
238	-125	1037	211	31
111	-14	-57	2441	31
59	20	-916	4000	31
-11	57	-588	4000	31
-16	-28	-145	1247	31
-82	-224	5	-1330	31
-186	-213	-205	-600	31
-187	56	-173	906	31
-46	322	-482	345	31
222	266	-508	-1750	31
591	237	417	-3013	31
264	244	337	-2209	31
-364	-114	-842	-2211	31
-200	-160	-1362	-1096	31
-127	-37	638	287	31
-199	-139	2017	2682	31
-638	-11	1285	4000	31
-980	64	830	807	31
-419	177	315	-2181	31
-86	360	545	-2788	31
658	400	-7	-434	31
1186	212	-452	981	31
1079	-105	-134	650	31
974	-126	16	-1360	31
364	-132	-467	-1761	31
-563	-184	-1605	1731	31
-1410	-200	-776	3695	31
-679	-145	-806	2369	31
396	39	-1326	-1039	31
535	70	-40	-2308	31
845	36	1119	179	31
685	84	605	2273	31
151	-27	-1021	404	31
-104	-182	-765	-1407	31
11	-207	1135	-868	31
181	-185	1544	-369	31
-39	-134	127	89	31
-401	-175	-167	-579	31
-315	-160	320	-1775	31
67	-70	681	-2877	31
-54	43	867	-2427	31
163	158	603	1286	31
122	180	400	3541	31
-378	209	-145	2259	31
-275	209	-96	939	31
-433	165	76	1024	31
-525	59	-249	-188	31
-385	-16	-578	-2558	31
74	-51	-508	-2689	31
452	-92	367	-3042	31
408	-112	753	-2440	31
337	-207	-1126	666	31
255	-255	-2043	2895	31
350	-192	294	4000	31
194	-64	1069	4000	31
-1	-64	-126	-97	31
-435	-111	-903	-3215	31
-871	-17	-290	-2921	31
-685	13	183	-1728	31
-118	132	-36	-1352	31
216	552	160	-1148	31
161	747	-154	-1276	31
152	299	312	-1476	31
69	-82	719	-2564	31
-141	-172	1127	-3123	31
-232	-262	2000	-1760	31
-52	-224	1145	22	31
46	-138	-697	4000	31
259	66	-1912	4000	31
30	206	-2033	512	31
-561	182	-1169	-2683	31
-757	116	-280	-2675	31
-639	14	210	-2972	31
-354	54	47	-1945	31
-1124	20	-407	-1764	31
-2047	-153	254	-931	31
-1525	-191	1203	870	31
-841	-222	729	898	31
-617	-246	329	-126	31
-678	-107	343	2766	31
-2392	-19	327	4000	31
-3363	51	34	1384	31
-799	89	-749	-933	31
3563	94	-120	-850	31
4000	193	312	464	31
4000	89	-286	392	31
4000	-73	183	37	31
2163	-76	-29	2427	31
1010	-23	-853	2424	31
896	-46	-368	998	31
1205	-142	-9	680	31
819	-20	-268	434	31
194	162	34	1302	31
-358	194	84	1284	31
-594	59	-23	827	31
-647	-109	-114	638	31
-499	-17	-287	-297	31
-441	95	101	-1314	31
-784	65	220	-2637	31
-840	-11	390	-2612	31
-876	-136	-49	-1501	31
-1045	-197	713	799	31
-754	-193	2491	2142	31
-372	-86	1968	-410	31
-387	110	-83	1602	31
-610	117	-2164	4000	31
-538	82	-2105	2599	31
-232	85	-1489	-1087	31
-590	20	-970	-1864	31
-924	29	311	-3358	31
-507	41	721	-2882	31
-379	-14	500	-2546	31
-460	-18	-123	956	31
-896	69	575	2997	31
-929	20	1543	1133	31
-9	26	860	2367	31
-848	297	190	3459	31
-4000	322	-255	637	31
-4000	100	-466	-1181	31
-1287	28	-440	-1445	31
3602	-84	-69	-2638	31
4000	-187	606	-3850	31
4000	-263	911	-4000	31
4000	-337	-513	-3073	31
3018	-26	-1306	-746	31
1168	327	168	3806	31
525	252	274	4000	31
-99	113	-662	2259	31
-534	228	-964	-348	31
-576	186	-1129	-789	31
-558	-43	-1217	-1327	31
-493	-169	-546	-1332	31
-598	-223	284	-2323	31
-873	-205	743	-1324	31
-988	-184	851	-881	31
-545	-46	527	-790	31
-527	27	425	-916	31
-1060	-101	16	-816	31
-1159	-157	-79	123	31
-995	-187	341	-73	31
-1074	-134	969	-1664	31
-949	-2	1185	-3233	31
-929	44	590	-1284	31
-858	57	64	3612	31
-664	64	-101	4000	31
-1027	97	-485	4000	31
-1084	17	-127	-556	31
-692	-37	1277	-3309	31
-439	68	166	-3357	31
-142	134	-1758	-1131	31
120	93	-1633	886	31
57	-37	-399	2932	31
128	52	89	2857	31
-54	159	-335	1466	31
-298	131	-72	-274	31
41	124	-166	-1240	31
228	-21	-174	-933	31
-57	-66	-15	-1121	31
-635	-84	-62	-2190	31
-362	-159	-85	-3267	31
244	-162	1031	-3100	31
29	-150	2905	-304	31
-94	-34	2207	4000	31
62	100	254	4000	31
178	212	-1929	3273	31
174	210	-3159	3323	31
-81	54	-1921	134	31
-172	21	-541	-2534	31
-107	-9	129	-1254	31
-519	-110	362	-812	31
1	-57	574	1054	31
909	-34	267	-938	31
450	-101	11	-2759	31
169	-126	398	-2943	31
96	-111	858	-1867	31
300	-124	1304	1121	31
80	-111	933	2970	31
-538	46	-734	3885	31
-465	265	-1701	1513	31
-373	416	-156	-588	31
-73	303	1041	-2239	31
-1169	1	600	-2046	31
-1934	-276	242	439	31
-1062	-445	-268	3156	31
-1911	-541	-881	3817	31
-2495	-483	-788	-1354	31
-1660	-200	-338	-2111	31
-66	-56	234	-66	31
3263	122	335	-218	31
4000	491	169	728	31
2825	821	-209	-257	31
302	909	-626	-380	31
-1110	613	-626	-124	31
776	377	10	-719	31
2778	34	1666	-913	31
3586	-341	2053	-801	31
3167	-340	489	-639	31
1859	-182	-659	-1289	31
962	-26	-783	-742	31
42	-100	-588	700	31
-205	-118	51	1015	31
-289	-35	295	854	31
-468	-17	-285	2428	31
-493	55	-283	2866	31
-624	-21	-32	410	31
-616	-165	-9	-254	31
-841	-176	153	-584	31
-1032	-188	313	-1692	31
-1605	-191	279	-1712	31
-3917	-167	-227	-1534	31
-4000	-167	-648	261	31
-3420	-44	-47	2399	31
1232	61	220	2674	31
4000	32	-390	1133	31
4000	-42	-157	-1833	31
2831	-42	-20	-2735	31
406	-13	-196	-2592	31
-1219	-62	149	-848	31
35	-30	323	1562	31
1063	-15	696	10	31
875	1	688	-1755	31
422	101	69	-1687	31
172	240	250	259	31
809	275	559	1804	31
-481	116	274	2160	31
-1272	49	-376	3822	31
-723	40	-896	2991	31
-438	88	-590	312	31
-359	197	-777	-833	31
-586	122	-921	-1505	31
-224	-32	-592	-785	31
-287	-125	-123	-910	31
-427	-173	436	-1529	31
-405	-114	581	-2098	31
-424	-56	664	-3286	31
-348	-93	151	-2004	31
-357	-127	250	637	31
-188	-95	933	4000	31
-278	127	509	4000	31
7	249	-839	1605	31
277	177	-891	-1951	31
21	190	-335	-2196	31
153	103	-505	-753	31
49	16	-140	-1076	31
-469	-45	38	-1640	31
-307	-118	248	-1737	31
-102	-149	509	-2525	31
-119	-225	742	-3338	31
-63	-213	1010	-2791	31
-129	-237	952	-6	31
161	-272	538	2561	31
181	-201	188	4000	31
51	-53	-124	4000	31
146	116	-1211	3612	31
151	258	-1889	1454	31
-70	397	-1711	28	31
-418	398	-1330	-392	31
-86	352	-541	-957	31
187	224	581	-2008	31
-70	67	949	-1750	31
-320	17	299	-1813	31
-175	-88	-571	-1275	31
-92	-212	-894	-1908	31
-72	-298	197	-3559	31
367	-352	2221	-4000	31
228	-318	3632	-3448	31
-144	-92	3282	1907	31
-12	32	1669	4000	31
127	-11	-701	4000	31
52	53	-2858	1634	31
238	140	-3428	-3322	31
342	297	-2996	-3474	31
156	259	-1056	-3415	31
13	153	315	-3640	31
-64	24	293	-2252	31
163	-421	1058	-557	31
327	-546	819	1965	31
81	-261	214	4000	31
-189	72	-159	2987	31
-183	260	-91	-164	31
-160	245	31	-763	31
-382	204	-274	650	31
-1144	92	716	1839	31
-2946	-42	1391	1357	31
-4000	-50	946	-2183	31
-2181	155	144	-4000	31
813	305	-87	-1063	31
2261	425	402	3099	31
2574	500	-292	3961	31
2332	230	-1560	2800	31
2726	12	-1200	3764	31
2479	11	-259	1801	31
2148	20	21	-355	31
1383	-56	328	-208	31
484	-199	253	-1257	31
252	-207	461	-375	31
-380	-205	529	-301	31
-892	-208	530	-153	31
-1188	-111	624	-260	31
-1043	-37	36	-545	31
-635	-86	-300	-138	31
6	-225	-879	-392	31
218	-182	-644	963	31
235	-124	849	1540	31
510	-98	1352	662	31
114	45	165	493	31
-658	69	-1015	97	31
-697	49	-755	-915	31
51	-29	-439	-1080	31
-157	-139	-11	-1110	31
-1310	-202	442	-1835	31
-2280	-250	623	-2381	31
-2766	-224	727	-1657	31
-1795	-49	141	-14	31
1027	206	-251	2918	31
3390	303	-669	4000	31
3026	330	-1338	2649	31
1585	202	-924	-27	31
1242	-17	205	-1305	31
599	-2	172	-1818	31
-327	15	40	1435	31
-307	-41	53	1683	31
-42	-102	-100	-384	31
-79	-164	134	-1046	31
-348	-201	462	-527	31
-230	-197	753	2029	31
-314	-97	34	1207	31
-342	7	-1256	-848	31
-49	135	-1060	-2025	31
-349	264	838	-1950	31
-568	276	2112	-851	31
-415	170	1887	935	31
-121	114	-157	3904	31
85	88	-1123	1950	31
47	67	-298	-1145	31
-39	79	-758	-1635	31
-104	12	-543	-2495	31
-209	61	-443	-1945	31
-365	114	-841	-30	31
-188	114	-550	171	31
280	160	420	658	31
-92	4	1166	-170	31
-738	-109	562	-1906	31
-349	-45	29	-722	31
29	-69	55	-402	31
176	-102	671	1134	31
-95	-77	236	3157	31
-191	-134	-62	3136	31
305	-190	338	542	31
182	-211	-524	-1384	31
252	-286	-859	51	31
327	-138	-985	-223	31
43	162	-985	18	31
-124	274	-82	142	31
-265	294	115	-1204	31
-392	187	-47	-1804	31
-332	-131	902	-1702	31
-319	-259	1240	-1029	31
-567	-152	-1086	-1462	31
103	-76	-2124	-1143	31
513	137	454	755	31
139	165	2216	2699	31
-97	58	2302	2502	31
-1127	170	1245	-326	31
-1720	137	160	-2107	31
-690	65	-400	-1441	31
1287	-79	-1247	-287	31
1996	-187	-1054	122	31
1413	-81	-744	672	31
1021	-104	-189	70	31
-17	-31	430	-1302	31
-523	12	343	-1665	31
-450	-187	-1376	-1041	31
-256	-476	-1988	899	31
-70	-557	328	2477	31
-1315	-354	1849	2506	31
-2189	-164	2491	-777	31
-727	156	1704	-2234	31
1411	352	394	713	31
1984	410	-104	1409	31
1038	525	-691	1335	31
410	556	-585	1238	31
553	479	-610	-50	31
1040	315	-1184	1537	31
1252	315	-1354	1152	31
380	268	-1300	-2510	31
185	199	-768	-2366	31
517	54	338	-2372	31
473	-254	1205	-1856	31
407	-407	1179	620	31
-138	-563	-207	1647	31
-318	-513	-1390	1106	31
-606	-271	-753	40	31
-844	151	916	118	31
-482	588	1287	-1114	31
-253	419	778	-2306	31
30	114	588	-798	31
136	45	459	2375	31
-142	-29	668	3847	31
-408	-60	95	1457	31
-304	-97	37	-2241	31
-282	-237	311	-4000	31
-437	-313	668	-3407	31
-219	-214	511	1502	31
-43	-36	-753	4000	31
2	81	-1176	2943	31
61	102	-1428	3053	31
-137	86	-1286	2963	31
-454	50	-877	-217	31
-224	3	-366	-495	31
100	-6	-95	-1727	31
-290	1	-55	-1370	31
-455	-2	272	785	31
-121	-35	319	-1416	31
-62	-134	91	-3110	31
-7	-187	-599	-4000	31
131	-218	-106	-3797	31
-66	-219	1464	667	31
-168	-162	1834	2814	31
262	-79	871	1104	31
595	-14	-170	1121	31
358	-93	-305	4000	31
-56	-4	-849	3591	31
-422	165	-1124	-1206	31
-521	-19	-503	-1961	31
-4	-192	689	-611	31
670	-39	1197	93	31
405	24	-163	-1968	31
-179	7	-758	-3099	31
-192	87	-693	-2389	31
-108	69	-590	11	31
-18	149	11	1285	31
114	260	498	1834	31
201	410	411	1008	31
188	495	896	-315	31
189	241	1240	1277	31
252	37	-372	958	31
74	96	-1381	1465	31
-118	184	-763	1059	31
38	102	438	-1812	31
101	-3	656	-3815	31
-164	-86	217	-4000	31
-214	-155	178	57	31
-66	-184	-10	2808	31
-307	-144	-692	1201	31
-975	41	-970	-1035	31
-1050	110	151	517	31
-104	76	588	3993	31
643	-23	325	2659	31
731	-224	-34	-500	31
661	-270	220	-1264	31
378	-154	781	-1104	31
269	63	468	-1105	31
222	17	666	-1068	31
-74	-308	1398	-655	31
-27	-299	1119	-212	31
-15	-212	-1514	-622	31
-322	-235	-3522	-638	31
-680	-41	-2171	-1391	31
-1080	88	723	-2204	31
-1171	183	1420	174	31
-492	286	746	2474	31
48	388	167	2892	31
-179	399	-713	2888	31
-505	161	-105	1842	31
-1036	42	352	-38	31
-300	-76	886	-1176	31
1530	-207	1250	-1990	31
1871	-261	684	-1983	31
1157	-262	183	-861	31
-385	-126	-585	-402	31
-3470	67	-796	160	31
-4000	390	-979	1586	31
-860	368	-1193	2750	31
2472	87	-1461	358	31
4000	86	-713	-2085	31
4000	27	1176	267	31
3453	-17	1215	1489	31
2397	14	718	-1727	31
1032	-75	580	-4000	31
374	-131	422	-3882	31
-181	-159	791	1056	31
-244	-72	865	4000	31
-224	49	623	4000	31
-530	57	-1238	3597	31
-395	-32	-3620	765	31
-758	-189	-3054	-1223	31
-932	-195	-132	-349	31
-571	-74	1368	-781	31
43	69	1060	-793	31
-382	200	856	-1505	31
-1161	141	1205	-1492	31
-863	-149	1049	-905	31
-383	-360	5	-868	31
-433	-361	-579	-703	31
-724	-289	-397	-1770	31
-350	-181	136	-1843	31
-287	-115	-324	-648	31
-383	9	-337	760	31
-97	159	34	1050	31
247	222	148	1073	31
221	346	350	614	31
-54	571	285	1076	31
117	667	330	3775	31
-16	545	-157	2063	31
-248	368	21	-883	31
-344	188	360	-1212	31
-284	-21	1334	-2103	31
-124	-227	1697	-2113	31
-311	-292	370	-2174	31
-1015	-262	-1010	-2188	31
-1245	-261	-1917	-530	31
-98	-253	-1652	3692	31
539	-200	-1473	4000	31
726	-133	-1044	267	31
1064	17	-901	-620	31
691	220	199	-1554	31
-49	115	2288	-314	31
-335	-80	2251	2344	31
-107	-11	728	1693	31
-47	-33	-831	731	31
133	-84	-433	-1393	31
3	39	166	-2218	31
-57	-44	803	-2803	31
169	-209	1488	-4000	31
-110	-175	932	-3007	31
-164	-180	-1	2073	31
-21	-299	-1893	4000	31
41	-235	-2085	4000	31
-136	65	-1662	954	31
-381	323	-1050	-4000	31
-282	376	423	-4000	31
-327	184	-56	-3058	31
-319	12	169	-2603	31
135	-120	1157	-3682	31
499	-347	802	-4000	31
440	-416	501	-3246	31
420	-295	1195	257	31
175	-160	1857	4000	31
-255	-11	1824	4000	31
-217	131	-310	2453	31
132	239	-2910	-1751	31
517	265	-2769	526	31
263	169	-1716	633	31
-43	207	-741	-2712	31
-222	294	219	-1389	31
-297	307	1302	-360	31
134	283	1400	678	31
540	225	699	2289	31
977	177	360	-495	31
733	-36	7	-2439	31
239	72	-114	-2241	31
-78	286	271	15	31
-432	24	758	3842	31
-433	-76	133	4000	31
-472	-114	-676	4000	31
-1595	-263	-340	1613	31
-3388	-290	769	-1019	31
-3671	-320	1351	-1265	31
-2202	-269	1456	-156	31
1301	-219	437	-166	31
4000	-101	-1083	-1940	31
4000	79	-1234	-905	31
3400	87	-1601	3530	31
1764	141	-843	4000	31
339	114	-157	2693	31
-438	57	-830	-1379	31
-69	220	-401	-1706	31
147	285	-226	-973	31
-433	229	-80	-1539	31
-916	116	169	-838	31
-1019	-19	196	-981	31
-171	-48	-12	-1345	31
728	-34	-61	-1776	31
543	-47	882	-884	31
-151	67	1542	1719	31
14	273	1521	3251	31
-100	226	88	907	31
-343	-83	-749	-1956	31
-233	-318	-8	-708	31
-342	-207	-327	1022	31
-321	-62	-804	3374	31
-415	5	-646	3958	31
-174	49	-21	300	31
-245	-24	660	-2209	31
-223	-70	649	-3706	31
57	-185	371	-2721	31
-2	-272	-4	212	31
-227	-221	-34	1133	31
-560	-182	-390	1220	31
-489	-134	-558	2544	31
-156	-49	-229	3718	31
135	-26	-279	1909	31
-599	-44	-1	790	31
-733	69	420	-1648	31
117	211	131	-3751	31
127	181	-67	-2763	31
44	59	269	-3220	31
176	-62	303	-1027	31
554	-8	82	2827	31
274	199	-411	2573	31
-247	136	-758	-42	31
32	-21	-480	-449	31
58	-12	-190	735	31
-222	-56	1007	1290	31
-315	-84	1518	620	31
-260	-35	-188	-1655	31
-123	24	-999	-3820	31
208	-67	-248	-4000	31
310	-160	360	-2963	31
175	48	27	-129	31
341	129	296	1465	31
177	59	-102	4000	31
-312	136	-1570	4000	31
-124	250	-1433	2437	31
122	256	-516	239	31
-59	63	725	490	31
-72	-45	580	-806	31
6	-67	278	-1289	31
71	-240	513	-951	31
14	-510	531	-1708	31
119	-533	1163	-1673	31
215	-357	1325	-2638	31
150	-327	849	-2717	31
24	-116	-308	-588	31
-141	257	-776	2101	31
-114	453	-1010	4000	31
-171	427	-802	1567	31
50	254	264	-4000	31
-113	187	338	-3351	31
-458	151	-142	207	31
-23	164	-989	2099	31
83	102	-887	509	31
-81	-95	-140	-2126	31
37	-6	-6	-1216	31
164	127	-265	1272	31
265	138	290	2038	31
329	103	2149	2010	31
121	-18	2777	357	31
32	-126	2168	-2440	31
265	-175	254	-2317	31
98	-135	-2384	378	31
-539	14	-2917	3157	31
-811	291	-1942	3388	31
-555	351	-632	1375	31
-615	208	37	-114	31
-596	64	84	-1133	31
-57	-99	-15	-1208	31
391	-127	-207	758	31
1147	-162	-168	177	31
1591	-160	-413	-1329	31
876	-132	-318	-1059	31
51	-177	1089	-2261	31
-134	-252	2249	-1753	31
436	-412	1417	224	31
655	-302	536	1297	31
242	121	43	1259	31
202	373	-966	597	31
56	298	-1016	-1139	31
-161	209	-286	-2673	31
-191	254	101	-2855	31
-259	280	152	-2027	31
-141	295	-139	1988	31
-153	60	-309	4000	31
-40	-159	373	2610	31
11	-139	856	148	31
-285	-149	77	-806	31
-163	-80	-676	-1903	31
95	-175	-194	-3099	31
-57	-330	462	-2765	31
-224	-332	698	-272	31
-14	-312	453	3723	31
47	-205	-412	4000	31
-102	-36	-575	4000	31
-236	104	-668	1629	31
-201	110	-772	-115	31
-135	31	-41	-959	31
-247	-72	1300	-441	31
-168	-185	1732	350	31
-307	-125	49	-1617	31
-415	199	-1316	-1976	31
-114	618	-1331	-1479	31
-69	716	-354	-468	31
15	266	-81	768	31
360	-89	-448	377	31
24	-68	136	133	31
-315	42	139	-394	31
-19	52	-131	-1168	31
91	-111	-81	-1297	31
94	-54	94	-1264	31
165	7	302	-1532	31
167	34	259	-1837	31
66	101	324	-2209	31
-117	-105	510	-2917	31
-330	-211	1518	-1982	31
27	-149	1962	110	31
348	-105	572	2777	31
7	9	-796	4000	31
-116	157	-1676	4000	31
-77	142	-1713	-260	31
229	71	-1400	-1983	31
344	38	-1095	-2562	31
22	41	-372	-2370	31
-107	112	591	-1795	31
-49	-33	1143	-1230	31
38	-28	851	-1027	31
35	56	370	-706	31
112	-143	-67	-275	31
9	-244	-11	-226	31
-201	-315	-54	-793	31
-137	-295	-303	-1702	31
-81	-222	460	-2052	31
7	-193	1666	-2179	31
275	54	1384	1360	31
136	175	-118	4000	31
-122	121	-1564	3839	31
107	194	-1885	-3198	31
85	96	-1076	-3477	31
73	-78	-1287	221	31
-29	-202	-1110	1347	31
-406	-259	300	-79	31
-392	-129	1196	-527	31
-204	-4	1192	96	31
249	204	645	-242	31
395	204	951	-1251	31
324	138	1457	-1662	31
406	289	875	-1982	31
72	235	-314	-801	31
-199	325	-590	4000	31
-70	501	368	4000	31
184	354	58	3829	31
205	119	-1207	1744	31
172	-44	-1216	325	31
119	-26	-423	239	31
-107	38	-600	302	31
-240	-93	-998	-2449	31
-375	-229	-39	-2413	31
-252	-218	142	-2449	31
31	-239	273	-345	31
242	-247	1354	4000	31
254	-195	1708	4000	31
39	-206	1214	-163	31
93	-210	209	-3056	31
-141	-171	-383	-608	31
-584	-94	-330	1289	31
-638	16	-131	2372	31
-688	137	-50	-842	31
-868	140	42	-2735	31
-398	35	-752	-1599	31
168	34	-1459	-1620	31
-382	76	-750	-68	31
-1800	184	-493	3165	31
-3258	229	-322	4000	31
-2815	148	124	3113	31
-977	89	671	-22	31
765	-1	421	-1739	31
2957	-67	-693	-1096	31
4000	-142	-565	-355	31
4000	-209	137	-525	31
2832	-288	644	-1666	31
1541	-337	1519	-2657	31
736	-302	1835	-1467	31
115	-330	451	2008	31
23	-280	-659	4000	31
297	-121	-1130	3549	31
269	31	-1325	-956	31
62	332	-873	-2424	31
-300	887	-540	-2752	31
-587	1125	87	-1838	31
-596	628	538	-1840	31
-570	263	654	-1225	31
-631	213	435	-1239	31
-686	-74	466	-1360	31
-653	-347	498	-2698	31
-580	-445	479	-4000	31
-618	-388	1016	-3519	31
-490	-293	1576	1351	31
-116	-147	2006	4000	31
29	25	144	4000	31
-187	130	-1960	1747	31
-377	67	-1150	2255	31
-12	-180	-211	1737	31
-286	-297	-980	-953	31
-1127	-355	-2115	-580	31
-652	-242	-2644	1078	31
129	107	-912	255	31
-89	410	833	-284	31
-795	488	107	-58	31
-1149	438	-102	-48	31
-26	413	132	-576	31
992	137	1138	-1202	31
1102	-91	1293	-1221	31
853	-245	-69	-1408	31
-262	-369	-119	-1667	31
-752	-170	1007	-1209	31
-96	-71	1232	688	31
560	-25	528	2667	31
496	-3	642	1734	31
528	18	511	-46	31
496	218	156	385	31
88	128	-1338	1401	31
-20	-62	-1396	1623	31
-518	-41	-220	1852	31
-2052	16	-606	1229	31
-3203	-42	-72	-129	31
-2227	-240	-514	-1248	31
68	-231	37	-1960	31
3069	-123	687	-700	31
3698	-105	-107	887	31
1876	-44	-200	419	31
1046	57	-491	-1143	31
438	119	544	-2639	31
185	-13	1297	-3279	31
34	-135	1302	-1766	31
-149	-87	224	683	31
-175	98	-874	2861	31
-135	350	-382	4000	31
-38	367	-136	2364	31
-187	159	-166	-1609	31
-196	-7	-185	-2690	31
-444	-99	41	-2470	31
-122	-187	533	-1186	31
-23	-268	1089	987	31
-610	-317	168	4000	31
-374	-295	-1661	4000	31
-169	-269	-1659	-198	31
-114	-67	-97	-865	31
156	297	541	-668	31
-8	351	328	-1796	31
-359	170	224	-3398	31
-207	179	-194	-4000	31
295	310	-103	-4000	31
-67	189	159	-3483	31
-653	-36	516	-155	31
-131	-163	1249	2740	31
-37	-178	1753	4000	31
-119	-128	1652	4000	31
234	-87	135	1056	31
-24	25	-2097	-3418	31
14	17	-3691	-3428	31
332	48	-3256	-2780	31
13	104	-566	-2227	31
-146	86	628	-1066	31
161	206	-64	-2148	31
47	60	244	-1227	31
-444	-240	1113	-736	31
-719	-298	1184	-51	31
-605	-210	207	352	31
-605	-11	124	-176	31
-413	185	829	51	31
283	234	1488	-173	31
996	109	1257	661	31
1069	50	-423	1720	31
572	109	-984	3363	31
643	37	-541	3042	31
646	17	721	998	31
128	121	788	-415	31
-193	207	-67	-1901	31
-127	200	-252	-513	31
-46	78	-1053	2588	31
-59	16	-623	3647	31
19	-95	124	2402	31
-122	-145	420	1256	31
-126	-47	358	48	31
-11	-112	-62	-642	31
-144	-231	-397	910	31
-9	-271	-485	1252	31
242	-135	-546	860	31
186	-33	-917	-152	31
-86	-42	-195	-1188	31
-250	4	265	-1261	31
-348	-77	648	-2312	31
-486	-116	2020	-3103	31
-173	-91	2830	-3384	31
70	-66	1385	-720	31
-39	-15	-1127	4000	31
145	-72	-2162	4000	31
238	-139	-2354	682	31
105	-196	-1604	-2633	31
48	-260	-561	-2098	31
-51	-227	137	-2144	31
2	16	466	-1094	31
-55	270	332	-679	31
-221	225	496	-349	31
-467	131	578	-156	31
-814	124	529	-2223	31
-500	170	485	-3476	31
-237	399	407	-2051	31
-583	466	61	2762	31
-473	308	-553	4000	31
294	206	151	3081	31
483	110	1514	3687	31
607	131	545	2700	31
946	234	-1064	-264	31
392	199	-864	294	31
583	68	-927	237	31
833	-26	-1032	-810	31
507	-59	-65	39	31
558	-119	473	42	31
-212	-181	551	-1474	31
-1285	-173	267	-2673	31
-2199	-180	300	-2084	31
-1831	-340	771	-712	31
-176	-485	1137	227	31
650	-501	949	-1213	31
1255	-423	-130	-1376	31
2067	-61	-605	2619	31
1958	359	-884	4000	31
327	378	-1366	3957	31
-1525	174	-1085	2484	31
-1480	116	-690	-605	31
-509	16	-575	-2354	31
879	-45	262	-2044	31
1534	34	763	-2392	31
705	108	44	-3306	31
619	224	-118	-2580	31
726	157	1431	750	31
851	128	1915	3764	31
554	220	24	4000	31
-67	212	-626	1778	31
-146	155	-60	-2478	31
-335	-31	-368	-1059	31
-520	-126	-688	307	31
-651	-131	-337	469	31
-200	-154	-229	460	31
45	-114	-515	-407	31
-669	-12	-1005	-1801	31
-843	21	-301	-2145	31
-390	-47	631	-214	31
-271	-104	465	304	31
-93	-305	698	-1902	31
-220	-385	752	-4000	31
-327	-209	955	-3458	31
-116	-72	684	663	31
-189	-9	-144	4000	31
107	67	-212	4000	31
221	64	137	1514	31
-17	-64	-217	908	31
-87	-11	-916	-405	31
-222	134	-596	-848	31
-164	122	-61	-1302	31
-40	-108	253	-3521	31
-184	-190	182	-3008	31
-194	60	56	-2259	31
32	174	82	-501	31
49	175	190	2462	31
-26	123	546	4000	31
-57	-13	1123	3405	31
-34	-87	820	-197	31
-11	20	-924	1164	31
96	140	-2592	82	31
365	44	-2981	-2954	31
145	36	-1006	-4000	31
-200	109	1397	-2308	31
-111	76	1986	-1226	31
5	47	1121	840	31
41	60	161	3730	31
51	139	139	2650	31
41	57	18	2279	31
79	-106	-495	2290	31
66	13	-498	783	31
-126	142	-349	-231	31
-354	155	-294	-360	31
-695	77	-44	-1602	31
-588	-151	-132	-2309	31
389	-212	71	-1484	31
742	-275	436	-1965	31
390	-385	926	-2182	31
118	-190	1436	-1933	31
41	63	980	-540	31
553	66	-405	1594	31
443	57	-1131	2261	31
-171	242	350	1034	31
-209	157	891	-1527	31
-277	-32	-638	-510	31
-428	-155	-877	1089	31
-265	-287	-395	793	31
-16	-335	-816	1111	31
167	-636	-445	612	31
445	-689	4	610	31
355	-278	562	-387	31
114	121	1078	-225	31
132	215	525	827	31
123	399	-261	374	31
124	1028	-1180	-116	31
-34	1150	-790	-1629	31
-247	841	101	-2948	31
-245	510	560	-3132	31
-69	127	952	-2642	31
-14	-54	1024	-705	31
-24	-124	585	4000	31
153	-11	-271	4000	31
232	111	-490	2948	31
271	-6	-331	1163	31
-2	-187	-126	-144	31
-385	-257	646	-2448	31
69	-229	972	-2948	31
197	-264	-407	-2763	31
-152	-390	-1898	-1965	31
21	-406	-954	-237	31
164	-272	649	2407	31
302	-135	132	2381	31
-336	-246	-590	-97	31
-735	-488	-768	-1600	31
-229	-443	-656	-2294	31
-356	30	619	-2048	31
-197	685	1534	693	31
21	782	511	2413	31
52	408	17	-45	31
196	134	949	-1130	31
97	-50	1532	-1747	31
165	-84	1306	-841	31
132	-6	-368	4000	31
247	106	-2124	4000	31
450	151	-2533	1098	31
383	101	-2245	-3463	31
175	-7	-902	-3180	31
-121	-81	761	-179	31
-145	-44	175	723	31
-154	-64	-452	672	31
-57	-195	574	1655	31
137	-353	1000	361	31
-187	-217	740	-1820	31
-326	9	656	-848	31
123	180	596	-870	31
92	367	321	-916	31
-365	181	152	-995	31
59	-81	333	-1995	31
487	-196	669	-2745	31
-264	-257	413	-2524	31
-483	-197	340	532	31
8	-103	490	3199	31
216	36	-219	4000	31
91	79	-593	3914	31
-36	46	-811	-1004	31
403	67	-619	-2708	31
274	20	116	-1361	31
-315	-58	227	1128	31
-448	-110	211	1329	31
-321	-115	-1	-686	31
132	-64	-942	1529	31
231	1	-1425	2780	31
13	2	297	3153	31
111	-51	1506	2851	31
174	-27	493	691	31
-67	21	-1143	786	31
-184	61	-1169	-1034	31
49	111	79	-1834	31
132	141	61	-1562	31
34	185	-101	-1683	31
108	104	-962	-1054	31
-1	-114	-753	-2543	31
150	-171	1439	-3639	31
415	-242	2454	-2279	31
-41	-273	1599	348	31
-387	-140	-290	2455	31
-156	-305	-747	3456	31
34	-169	-496	3817	31
-127	527	-605	2179	31
-253	960	-552	-1151	31
-244	1007	417	-2091	31
-498	562	1333	-1561	31
-1052	-87	352	-1202	31
-1190	-265	-174	-1647	31
-733	-69	-49	-2409	31
-701	68	-63	-256	31
-1032	-49	-500	2109	31
-748	-145	-746	3812	31
350	-163	-848	3554	31
1625	-237	-1732	804	31
2133	-327	-1100	-2357	31
1521	-413	1457	-4000	31
856	-385	2163	-2774	31
1186	-260	848	-144	31
1175	-120	313	2196	31
-363	21	-381	3202	31
-1802	292	-824	1349	31
-1093	470	-340	-62	31
630	298	-84	-454	31
1815	150	-44	246	31
1553	76	-67	-502	31
122	57	101	-1384	31
-135	134	-47	-588	31
290	14	-397	-362	31
357	-110	-256	-1577	31
31	-217	41	-2132	31
-510	-375	309	-1532	31
-735	-316	800	-675	31
-160	-199	1486	493	31
11	-134	1312	467	31
-434	-52	-339	705	31
131	42	-1344	1885	31
567	112	-729	3350	31
508	210	-417	3059	31
37	311	-489	1282	31
-248	370	247	42	31
60	401	44	-1016	31
-377	210	-1074	-993	31
-1708	-33	-555	-1470	31
-2608	-186	-79	-1474	31
-1255	-187	-285	-2308	31
788	-95	212	-669	31
1682	-84	1138	2393	31
1468	64	1850	1619	31
796	131	1107	1437	31
610	78	-285	1391	31
-4	54	-966	2542	31
-501	-77	-1237	764	31
-472	-135	-518	-1655	31
-503	-227	82	-1739	31
-453	-368	4	-2159	31
-423	-344	73	-1256	31
-457	-213	-114	-2095	31
-477	77	374	-1852	31
-324	309	1060	-1898	31
-211	194	956	-1382	31
104	98	906	772	31
260	185	4	1159	31
-161	231	-1576	1356	31
-835	222	-1796	1404	31
-1232	174	-215	826	31
-336	51	1203	219	31
815	-59	1218	1497	31
786	50	497	2940	31
751	182	-553	845	31
893	228	-540	-1830	31
530	92	-668	-1093	31
276	-302	-926	-590	31
51	-443	-698	-798	31
-326	-340	93	-630	31
-423	-217	1040	-888	31
-242	-108	1034	-174	31
117	-120	421	373	31
415	-278	-763	850	31
147	-405	-617	739	31
-59	-197	-219	-163	31
669	12	-192	-1219	31
776	149	258	-2547	31
-159	253	575	-1981	31
-525	241	891	-36	31
-353	398	574	1331	31
-1	268	-756	2491	31
-62	52	-1147	944	31
-267	46	683	-1437	31
-121	-94	1499	-344	31
-187	-168	809	-49	31
-143	-47	-170	-467	31
-180	428	-460	-1443	31
-8	470	188	209	31
106	111	174	4000	31
-109	90	-325	3783	31
11	13	-803	2739	31
107	51	-667	1186	31
2	26	-583	-121	31
-149	-39	-744	-2108	31
-144	-50	-467	-3934	31
-21	-270	230	-3431	31
-66	-372	832	-3359	31
-818	-401	856	-1876	31
-1261	-334	699	568	31
-769	-135	582	4000	31
-161	184	591	4000	31
612	516	-194	1588	31
774	476	-1008	424	31
825	192	-1536	-399	31
1001	42	-1831	-1812	31
720	57	-988	-2665	31
421	29	-190	-3238	31
106	-50	197	-2175	31
254	-147	318	-2186	31
2	-245	695	-2479	31
-1041	-259	1113	-2181	31
-1305	-320	928	-1238	31
-421	-384	-53	1984	31
-380	-310	-1208	3641	31
-485	-150	-566	3111	31
610	2	305	2957	31
997	156	523	1653	31
1309	367	848	-404	31
1248	249	956	-1093	31
544	-59	993	-1041	31
404	3	332	-348	31
338	42	-226	226	31
242	137	-376	-28	31
-443	328	-272	-1238	31
-1160	269	52	-1808	31
-1997	150	368	-1315	31
-2753	-100	430	-1327	31
-1644	-216	-192	-1051	31
414	-315	-265	-469	31
1048	-394	1308	2798	31
-1094	-105	1263	4000	31
-3130	72	-973	4000	31
-1533	202	-1978	4000	31
2292	352	-1775	2263	31
4000	303	-737	-1129	31
3944	194	-357	-1933	31
3332	101	-226	-2011	31
2161	111	42	-1554	31
744	31	359	-2148	31
242	-101	864	-750	31
116	-85	540	610	31
-274	-96	346	330	31
-645	-142	503	-321	31
-605	-174	162	-1283	31
-751	-30	-566	-1780	31
-785	296	-309	-2047	31
-417	400	234	-1103	31
-567	150	664	1251	31
-663	4	555	3236	31
-503	45	-399	4000	31
-609	-36	-837	3465	31
-438	-23	-409	-661	31
-199	-12	293	-1301	31
-150	-66	462	-1507	31
-147	-149	336	-1322	31
-171	-259	-159	-1794	31
150	-239	-64	-3323	31
69	-233	703	-2932	31
-129	-247	95	-1047	31
185	-250	-656	1092	31
39	-179	302	1803	31
-374	-67	773	2786	31
-408	-11	-508	1184	31
-204	-80	-1341	-1550	31
-110	-277	-688	-384	31
-317	-332	-56	2937	31
-316	-213	23	3017	31
2	178	-212	528	31
35	627	-546	-611	31
-164	647	-232	-1532	31
-297	473	934	-1098	31
-134	328	1276	-1077	31
38	69	311	-1109	31
-18	-114	-151	-1123	31
80	-66	-408	-1500	31
209	-69	-754	-149	31
104	-23	-83	515	31
-164	119	857	-5	31
-274	96	867	-1302	31
-29	-31	671	-2278	31
164	-187	-172	-728	31
-114	-149	-741	1456	31
-237	47	-152	2278	31
115	92	-26	570	31
212	-48	-434	-642	31
144	-89	-585	-374	31
198	134	-272	513	31
172	263	-894	3529	31
65	279	-363	2680	31
-172	401	2120	743	31
-586	210	1690	-1209	31
-972	-176	-77	-3618	31
-293	-111	187	-1284	31
698	90	-7	1621	31
420	88	-760	3571	31
638	4	-748	1001	31
873	-161	-547	-881	31
87	-233	6	397	31
-45	-177	77	-642	31
34	-153	79	-231	31
107	-197	93	-795	31
189	-217	-212	-1334	31
32	-236	163	-1792	31
-134	-232	458	-3434	31
-238	-80	763	-4000	31
-124	111	1649	-2470	31
-60	211	1595	3396	31
93	145	-352	4000	31
161	52	-1998	3460	31
112	-90	-1676	2688	31
295	-203	-773	1171	31
262	7	-482	-1104	31
-234	214	-344	-599	31
-365	225	-164	-1686	31
-96	109	-54	-1179	31
-76	-12	53	-1405	31
59	-29	158	-1992	31
169	-132	416	-2084	31
25	-245	612	-2755	31
-373	-289	526	-2006	31
-534	-283	456	614	31
115	-144	501	4000	31
307	66	209	3293	31
-320	206	306	-1690	31
-191	155	641	-1292	31
179	-21	-96	3339	31
134	-136	-1366	3368	31
159	-115	-1551	-3050	31
147	86	-485	-4000	31
360	378	-232	-2331	31
-42	468	-298	-772	31
-549	396	141	2937	31
-135	249	215	4000	31
244	69	184	2835	31
186	14	-32	-598	31
236	-60	-457	-1637	31
381	-154	-703	-2065	31
142	-189	-114	-1169	31
39	-202	717	1351	31
147	-199	1682	711	31
219	-82	1975	1294	31
108	129	969	1245	31
-319	101	168	205	31
-311	-14	-284	-184	31
-147	-84	-1	-61	31
-435	-168	109	747	31
-398	-101	-448	518	31
-239	-41	-1410	-833	31
-359	-4	-1469	-3524	31
-261	43	-253	-3608	31
114	-53	353	-1161	31
181	-76	556	2296	31
94	73	602	3377	31
-156	-26	268	1011	31
-740	-352	-588	-295	31
-548	-298	-487	-1050	31
-136	54	128	-826	31
597	381	74	-461	31
1049	553	-834	-1812	31
725	323	-633	-3886	31
753	98	1235	-3188	31
502	14	1603	-1153	31
16	32	571	2787	31
-737	200	-525	4000	31
-1146	114	-328	4000	31
-1224	45	-809	926	31
-580	169	-1386	-1519	31
757	283	-741	-1588	31
1284	279	-354	-573	31
1546	-47	89	-1547	31
998	-373	-100	-1181	31
360	-491	475	-1128	31
-450	-473	1999	-912	31
-1499	-338	2439	-247	31
-979	-287	513	100	31
48	-340	-1553	-230	31
835	-342	-989	-1126	31
198	-1	83	-487	31
-1142	442	237	759	31
-745	586	578	1580	31
632	506	27	515	31
1085	195	-553	-469	31
920	-27	-307	1617	31
746	28	-640	3176	31
342	18	-427	1762	31
174	-6	-175	-170	31
-525	97	-107	-1141	31
-1162	96	-12	-716	31
-1136	-1	-174	-269	31
-753	23	252	-899	31
377	-26	938	-634	31
770	-275	753	89	31
-139	-383	-298	643	31
-1167	-343	-960	335	31
-1350	-229	-54	-1381	31
-21	62	307	-1415	31
1212	268	-951	-598	31
1365	164	-377	1034	31
1152	-17	1108	3488	31
839	-61	914	1988	31
507	-17	257	-658	31
174	41	96	-317	31
171	119	-80	-52	31
73	188	-94	204	31
-6	155	-508	530	31
-142	69	-982	-1299	31
-295	-16	-582	-422	31
-310	-3	328	1360	31
-703	1	1150	545	31
-593	-74	839	-530	31
-112	-69	-79	-2210	31
153	-67	-538	-877	31
214	-6	0	412	31
-116	-22	620	2121	31
-487	-37	202	4000	31
-615	147	-831	2070	31
-79	159	-1051	-340	31
108	58	-448	-1119	31
39	38	-142	-1957	31
350	-14	245	-2732	31
347	-119	218	-2207	31
237	-147	171	-744	31
-274	-147	157	-43	31
-349	-186	142	-1018	31
46	-127	27	-668	31
125	-10	-171	949	31
-47	88	1138	657	31
-457	-21	1137	-842	31
-390	-244	-423	-743	31
-185	-201	-231	1973	31
-195	74	648	2666	31
-445	443	349	1942	31
-443	513	-1310	996	31
297	140	-1923	127	31
483	-79	-689	1557	31
-496	-6	-37	443	31
-395	79	-42	-848	31
596	16	175	-1329	31
119	-152	538	-2507	31
112	-187	905	-1975	31
519	-175	994	-2922	31
302	-190	596	-4000	31
151	-227	696	-3330	31
64	-283	1579	1442	31
139	-76	832	4000	31
-117	174	-1677	4000	31
145	332	-2778	4000	31
189	485	-1825	633	31
-250	448	-1451	-1258	31
-2	295	-1265	-1996	31
100	23	202	-1251	31
63	-143	1428	-231	31
-70	-86	1333	-730	31
-270	-225	803	-696	31
-122	-343	709	-820	31
75	-319	674	-619	31
-17	-308	381	-96	31
-242	-162	-58	208	31
-556	-175	-130	-233	31
-674	-52	693	-1435	31
-669	292	1571	-1951	31
-1315	345	1598	-708	31
-1135	263	300	430	31
73	252	-1306	186	31
735	293	-980	1337	31
989	229	-243	2509	31
675	243	-1060	713	31
-21	222	-2284	-820	31
156	-83	-2259	22	31
1121	-222	-267	144	31
1373	-74	1090	217	31
939	34	1164	79	31
515	-54	773	-465	31
442	-165	229	92	31
475	-132	194	-107	31
-109	-143	-71	-151	31
-378	-260	112	-93	31
-304	-287	151	-570	31
-185	-282	207	-1415	31
-913	-211	693	-2472	31
-2813	9	1200	-3364	31
-2948	206	1326	-3048	31
-543	210	617	348	31
1966	129	-388	3770	31
2604	185	-1860	4000	31
2398	250	-2592	4000	31
1738	338	-1127	2174	31
1001	252	734	201	31
700	111	879	-1565	31
91	84	-267	-3005	31
-97	-111	-1218	-1516	31
-474	-170	-514	402	31
-984	-147	224	-792	31
-630	-53	127	-1032	31
-17	57	478	-1083	31
-119	-39	832	-1437	31
-385	-121	718	-1246	31
-169	-308	265	-1876	31
-34	-336	89	-1231	31
-17	-215	422	-1068	31
-107	-207	1710	862	31
-272	-79	2023	4000	31
-406	52	-683	4000	31
-187	307	-2793	227	31
46	437	-2510	-1823	31
-129	199	-551	1150	31
-161	126	252	2058	31
-269	107	-299	789	31
-533	-1	492	-669	31
-387	97	490	-733	31
-66	155	445	-781	31
24	7	374	-1169	31
-200	-126	134	-1262	31
-280	-183	244	-2007	31
-39	-228	207	-2501	31
-123	-260	1028	-2397	31
-238	-222	1267	-498	31
-104	-148	212	2917	31
-64	34	-641	4000	31
-101	200	-741	3298	31
136	194	-1170	3631	31
456	257	-447	2763	31
402	238	-342	-913	31
308	5	-1416	-1822	31
385	-104	65	-1635	31
271	-182	1401	-1714	31
-59	-174	764	-994	31
-265	-2	-109	-377	31
-277	-16	-137	-13	31
-150	-152	218	-490	31
-29	-230	322	-503	31
17	-164	330	-741	31
37	-26	179	-1564	31
-172	179	85	-1553	31
-91	288	-81	-149	31
224	180	-48	2295	31
-204	141	-56	3579	31
-8	112	-123	2507	31
365	137	365	-945	31
-78	126	1430	-2983	31
119	72	2059	-3042	31
-5	106	358	-3950	31
-989	-23	-2491	-2785	31
-1660	-95	-3267	1584	31
-818	-1	-1651	4000	31
594	81	-183	4000	31
1048	82	91	783	31
1051	-34	254	-1071	31
673	-94	234	62	31
799	-73	264	1155	31
801	-28	353	372	31
-165	44	362	-91	31
-242	168	521	-663	31
-115	226	343	-1245	31
-365	171	51	-926	31
-164	83	76	-660	31
55	-111	214	-877	31
248	-337	462	-1947	31
-59	-445	1124	-3007	31
-736	-375	587	-2354	31
-1566	-260	-407	711	31
-1960	-97	-27	4000	31
-498	147	807	4000	31
1079	267	1022	1431	31
1013	242	-383	167	31
738	139	-1565	1798	31
389	125	-2235	1749	31
527	174	-1478	617	31
1373	121	-509	-1454	31
904	106	-250	-2847	31
312	99	368	-2387	31
685	-61	159	-2000	31
560	-189	421	-1190	31
116	-92	485	-573	31
-82	-85	549	-236	31
-26	-176	315	-135	31
107	-119	-57	-1007	31
-390	-122	259	-2051	31
-1367	-189	314	-2713	31
-1550	-191	277	-1828	31
-1045	-102	-37	512	31
-506	45	-533	973	31
-5	62	-1042	-243	31
30	-4	428	1623	31
640	-19	2097	3274	31
1066	50	1033	4000	31
435	121	-392	3435	31
220	52	-311	-1395	31
27	-46	643	-861	31
-780	52	503	-1652	31
-1136	112	-156	-1726	31
-334	-6	-660	184	31
670	-99	-1092	907	31
1079	-183	-260	-68	31
615	-170	510	-1950	31
204	113	271	-1151	31
37	482	-721	-746	31
-88	542	-1637	-184	31
72	332	-1127	-490	31
-22	116	-179	-834	31
-305	-40	-79	-398	31
-620	-127	373	555	31
-725	-209	1027	1929	31
-1185	-373	489	1577	31
-662	-470	87	421	31
838	-401	-199	-37	31
631	-400	426	353	31
-186	-254	1232	875	31
-122	189	286	2176	31
-124	544	-44	688	31
-1543	527	340	-2157	31
-3087	160	68	-2852	31
-2018	127	10	-2364	31
1279	418	300	-731	31
3517	366	-12	847	31
3094	121	-749	4000	31
2175	-11	-1154	4000	31
1252	-33	-303	914	31
435	-119	581	-1425	31
335	-152	290	-2023	31
-231	-204	232	-2526	31
-448	-416	324	-2872	31
-281	-394	348	-2482	31
-194	-247	325	-1289	31
-313	-186	-12	989	31
-820	-4	-525	2998	31
-717	109	-507	2807	31
-747	110	-240	1767	31
-1191	145	-135	-779	31
-806	163	147	-1145	31
255	279	342	186	31
1006	506	284	-265	31
822	612	-503	-648	31
244	466	-1178	-615	31
340	143	-525	751	31
96	-164	1019	-384	31
46	-334	740	-3088	31
198	-423	91	-3044	31
-360	-385	385	148	31
-365	-192	-257	4000	31
-543	112	-1339	4000	31
-257	152	-2116	-713	31
733	-80	-242	-1622	31
227	26	1602	-1206	31
-362	42	1265	1454	31
7	-79	704	2378	31
149	47	28	-958	31
408	21	123	-1706	31
285	-69	260	-548	31
-204	-121	257	-702	31
-250	-176	-69	-1697	31
-215	-136	-659	-2001	31
-210	-158	-163	-2118	31
-395	-213	185	-1880	31
-272	-167	94	-678	31
154	-117	-190	1591	31
-27	-73	-226	3988	31
-510	-45	86	1602	31
-587	-34	-969	-1399	31
-373	74	-1070	-937	31
66	149	1020	1928	31
415	136	2119	3615	31
208	254	1102	994	31
201	347	-688	585	31
460	91	-1360	735	31
312	-164	-1017	1565	31
-53	-259	-454	1747	31
-336	-259	-67	-1814	31
-91	51	-8	-2600	31
-148	414	-124	-3054	31
-378	363	-452	-2790	31
177	50	413	-2543	31
376	-135	2043	-3442	31
262	-252	2188	-2058	31
237	-27	147	1442	31
81	383	-1567	4000	31
-175	367	-1316	4000	31
-445	154	-346	-700	31
-266	-36	26	-4000	31
-17	-141	-314	-1034	31
36	-26	-151	1459	31
-51	145	-52	633	31
31	134	254	-341	31
325	84	372	-984	31
158	11	-32	-553	31
-252	-108	-73	-596	31
-560	-189	142	-632	31
-245	-326	496	-1077	31
192	-505	124	-1737	31
44	-588	-750	-1352	31
343	-511	-861	-186	31
948	-310	414	1337	31
701	110	897	1951	31
55	434	576	2186	31
61	496	748	2021	31
148	523	291	526	31
-198	361	368	-434	31
-552	227	450	-352	31
-369	88	12	-993	31
151	-103	-178	-129	31
92	-119	-605	84	31
92	-185	-438	56	31
26	-127	-267	1166	31
-132	48	-352	-413	31
-19	185	-146	21	31
-228	272	-284	3213	31
-232	217	-470	2947	31
-149	203	6	-270	31
273	179	335	-946	31
773	76	-59	471	31
388	-11	-194	1188	31
-35	-99	163	812	31
-294	-133	1188	-1568	31
-282	-190	1250	-2995	31
-223	-237	-510	-1841	31
-407	-208	-2419	465	31
-154	-199	-2374	1771	31
374	-119	89	2624	31
139	27	1026	1505	31
-1285	133	463	-1294	31
-1821	164	577	1263	31
-556	122	164	2122	31
451	-1	-401	74	31
899	-163	-215	509	31
1421	-107	-118	-1140	31
1167	22	202	-1472	31
808	-19	600	-1344	31
427	-111	585	-2129	31
-121	-303	464	-2519	31
-74	-416	148	-3840	31
21	-320	84	-3837	31
36	-259	-328	-3238	31
-140	-106	143	-103	31
-236	108	720	4000	31
-132	200	176	4000	31
10	172	577	1895	31
-92	110	957	-920	31
-507	94	566	-1264	31
-233	142	-764	-1870	31
310	445	-1890	-4000	31
358	578	-1457	-4000	31
56	283	-272	-267	31
-42	109	266	2751	31
-43	94	-217	2559	31
-421	24	-776	1276	31
-407	-72	-1177	-659	31
-88	39	-403	-944	31
187	135	508	-998	31
45	-28	936	-559	31
-316	-4	994	-1594	31
163	-22	645	-2876	31
37	-167	395	-649	31
-596	-220	-297	2281	31
-388	-290	-184	4000	31
-343	-251	620	4000	31
-623	-147	728	1646	31
-867	-74	325	2230	31
-967	-31	-114	2186	31
25	71	-618	454	31
1129	145	-773	314	31
595	131	31	44	31
84	92	503	-1109	31
-760	17	65	-1483	31
-1605	64	-526	-1783	31
-789	111	-375	-1230	31
-783	131	31	-517	31
-1814	135	-40	-359	31
-1028	17	167	492	31
1373	-39	-12	773	31
3132	-81	-208	-288	31
3754	-112	516	-600	31
2802	-96	1155	-2119	31
1985	-196	1075	-4000	31
1430	-312	676	-3554	31
813	-314	-69	-1514	31
726	-307	-340	3785	31
74	-199	-147	4000	31
-78	-32	-385	2679	31
-388	-49	-788	-1810	31
-529	177	-1424	-2060	31
-585	448	-1089	162	31
-445	292	272	-725	31
464	262	802	-2456	31
-387	245	-161	-2685	31
-1005	191	-744	-3005	31
-624	181	-264	-427	31
-727	-22	165	1812	31
-269	-67	-52	1849	31
-264	-121	-502	396	31
-455	-64	141	-3	31
-317	0	1185	657	31
-334	-190	1345	842	31
-121	-192	217	1354	31
-64	-137	-667	-77	31
-262	-44	-587	299	31
-481	143	-668	687	31
-528	210	-206	-1497	31
-687	71	1018	-3133	31
-269	-41	1049	-1894	31
287	-104	412	4000	31
8	-203	-227	4000	31
189	-97	-906	1349	31
270	84	-859	1355	31
224	132	-199	619	31
318	337	804	-111	31
-51	629	714	-99	31
-258	515	315	-850	31
-307	305	361	-1205	31
-232	66	431	-1143	31
-221	-112	444	619	31
-191	-270	-452	720	31
-177	-471	-1025	-93	31
-525	-252	-625	4	31
-600	-201	-99	-236	31
-222	-252	-13	-753	31
-10	-179	305	-1342	31
37	-167	738	-1573	31
360	-94	254	-405	31
589	-133	139	3057	31
588	-155	255	4000	31
702	-109	-334	2387	31
575	16	-674	432	31
124	79	-817	-1171	31
187	82	-517	-2457	31
251	122	-33	-2276	31
-111	75	-34	-1452	31
-42	63	-7	24	31
-76	72	-306	753	31
-234	109	-98	-115	31
-136	197	716	-1168	31
-244	197	495	-2089	31
-226	60	109	-2740	31
62	-40	116	-2913	31
-171	-109	-295	-2269	31
-526	-187	-413	2858	31
-72	-90	-22	4000	31
255	39	400	3716	31
-175	104	962	-794	31
-193	74	958	-3344	31
86	0	324	-3616	31
17	12	-642	-1799	31
303	-12	-841	-90	31
202	2	-320	-216	31
-156	75	-309	-1049	31
327	98	-262	-522	31
527	36	-335	-1524	31
154	-95	-5	-2020	31
128	-205	1089	-1755	31
-44	-222	1894	-789	31
-267	-187	642	2284	31
-260	-116	-1594	4000	31
-190	102	-1449	3085	31
-288	255	-309	212	31
-1109	205	-198	1188	31
-614	147	-537	1727	31
537	79	-304	-129	31
813	-107	-577	-874	31
1302	-205	-909	-484	31
673	-150	454	1737	31
94	-160	1260	2544	31
210	-119	867	2188	31
-241	6	458	-72	31
-63	82	310	-1157	31
58	143	-43	96	31
-169	236	-99	-785	31
-653	253	434	-5	31
-959	209	159	-560	31
-435	252	-395	-1300	31
-454	249	-151	-570	31
-573	84	420	-342	31
-6	-103	214	1878	31
693	-257	273	2887	31
1068	-531	812	579	31
961	-638	819	-780	31
646	-272	608	-977	31
280	300	-558	-1643	31
-255	627	-1388	-893	31
-509	452	-1126	345	31
-151	144	-397	825	31
-339	-82	61	1611	31
-142	-121	57	2314	31
803	50	457	1050	31
455	39	58	-635	31
-101	-49	-544	-1207	31
-1165	-16	-756	339	31
-1836	30	-398	468	31
-590	96	122	-3079	31
272	120	189	-2921	31
1107	-31	581	695	31
1728	-157	-171	2449	31
1160	-132	-1754	341	31
237	-34	-1363	-1597	31
-168	81	1145	-434	31
-215	84	2239	3382	31
-730	-2	1054	4000	31
-1374	7	-409	1396	31
-1681	84	-280	-1979	31
-980	69	249	-2449	31
790	73	-107	-2104	31
1787	-39	-8	-2509	31
1498	-285	218	-4000	31
726	-355	668	-3832	31
-86	-319	355	-682	31
-397	-204	-32	4000	31
-593	-25	-199	4000	31
-791	122	-348	2445	31
-300	232	-146	935	31
227	257	-446	192	31
67	212	-132	-860	31
313	92	217	-1033	31
546	-60	814	-1945	31
495	-179	1543	-1922	31
611	-211	634	-2183	31
263	-213	-822	-2056	31
-16	-214	-1311	-288	31
-385	-147	-1380	1459	31
-573	-6	-1177	1753	31
-308	274	-392	1164	31
-134	501	-44	845	31
-148	439	-1	-27	31
-315	264	-19	-22	31
71	239	-21	-592	31
200	106	137	-630	31
94	-123	121	-72	31
102	-102	244	-507	31
-72	-102	345	-322	31
-152	-109	353	-645	31
-377	-130	418	-964	31
101	-199	353	-1895	31
107	-170	-97	-2407	31
-239	-184	-274	-1226	31
-94	-153	457	745	31
-623	-56	807	3815	31
-542	23	344	4000	31
194	58	92	1459	31
295	86	-8	-409	31
267	75	-218	-229	31
618	14	-398	-675	31
553	39	-347	-111	31
255	24	-157	-4	31
150	-18	-97	-475	31
-38	2	-438	-1254	31
10	63	-272	-1474	31
-19	93	739	-911	31
-128	-12	1411	-493	31
-132	-78	1214	44	31
-419	-94	39	1192	31
-582	-225	-1577	2612	31
-212	-395	-2255	1975	31
-119	-153	-324	366	31
-97	159	1092	-1249	31
144	16	727	-939	31
-89	170	423	102	31
-716	281	-300	780	31
-525	170	-224	1001	31
355	632	-259	-925	31
64	766	-643	-1189	31
-11	380	-569	-1329	31
214	440	37	-1319	31
92	428	589	-154	31
207	-62	555	1181	31
-492	-347	276	2295	31
-618	-515	-337	770	31
36	-610	-383	-1024	31
744	-621	-126	-856	31
961	-619	729	-556	31
715	-334	1381	-1563	31
599	-306	641	-1164	31
359	-269	-342	-392	31
370	-59	-647	-1534	31
264	1	-424	-850	31
-13	139	265	979	31
-215	66	852	974	31
-253	72	388	716	31
-572	149	-434	1650	31
-630	96	-975	2931	31
-290	123	-990	2452	31
-223	38	-779	928	31
-154	47	-497	1	31
-350	114	-9	-302	31
-369	75	-2	-420	31
-182	44	-46	-1612	31
357	21	38	-1866	31
754	59	260	-699	31
150	115	249	961	31
-242	82	-664	1836	31
-965	22	-917	-179	31
-2310	43	-99	-695	31
-1965	33	674	-819	31
337	9	699	-1259	31
2120	39	1027	-346	31
2199	14	1316	-470	31
1333	-42	412	-414	31
968	-101	267	-525	31
1017	-100	-36	550	31
508	-101	-491	1151	31
-59	-170	84	619	31
-801	-137	645	116	31
-1088	48	255	-829	31
-371	234	-458	-793	31
574	196	-207	-637	31
892	174	-46	-278	31
361	313	176	-567	31
175	273	658	-321	31
59	96	970	-228	31
-252	-76	1222	-961	31
-164	-149	385	1194	31
-184	-72	-1559	2467	31
-292	6	-2404	904	31
-206	7	-1503	-239	31
-151	-25	-752	-580	31
-239	22	-331	332	31
-570	43	-443	2163	31
-853	25	-520	2281	31
-330	46	64	9	31
290	1	56	-925	31
343	4	728	-1293	31
302	17	769	-1028	31
164	-101	58	-19	31
-89	-187	-677	-320	31
-381	-211	-1579	-725	31
-50	-209	-203	-2289	31
339	-134	1882	-3205	31
305	-78	2066	-638	31
231	-106	885	3693	31
-48	-137	294	3624	31
-274	-29	704	859	31
-364	124	661	136	31
-91	-2	-74	-672	31
12	-102	-427	-177	31
-252	75	-360	387	31
-180	290	-779	309	31
-70	498	-1072	54	31
-153	491	-826	409	31
-386	289	-641	56	31
-536	-107	-158	-1113	31
-224	-480	-180	-1076	31
-207	-405	-571	-1853	31
-602	-134	-92	-1489	31
-304	174	1148	-638	31
38	210	1734	-192	31
370	197	907	-144	31
921	318	193	481	31
856	147	-71	2788	31
491	-6	-215	3808	31
-89	-111	-59	1466	31
-451	-259	-217	-1857	31
-850	-263	-99	-3012	31
-500	-192	-74	-3313	31
714	-66	-909	-1634	31
1256	14	12	-290	31
1122	167	1341	1238	31
720	384	788	4000	31
454	385	-668	2897	31
-120	167	-1764	562	31
-129	-102	-1198	623	31
-26	-144	-886	-347	31
-71	6	-1085	-700	31
20	57	-154	-505	31
-132	-91	1251	-587	31
189	-342	1626	-1137	31
56	-434	766	-546	31
-4	-250	307	-379	31
-200	-224	360	-931	31
-476	-170	399	-745	31
-137	215	521	-1640	31
-458	336	484	-2312	31
-828	175	325	-2178	31
-981	51	222	-430	31
-1475	22	26	3088	31
-1097	-40	-380	4000	31
178	-12	-611	1427	31
61	56	-754	-200	31
-1024	34	-847	859	31
-750	27	-741	-112	31
1049	-51	-202	146	31
2047	-34	1114	750	31
1383	-39	959	-283	31
-405	-108	-503	-512	31
-1866	-42	-691	119	31
-455	57	348	59	31
1685	38	811	648	31
2602	4	111	599	31
1838	107	274	-904	31
1047	174	-492	-119	31
1061	224	-1499	455	31
87	177	-846	-320	31
40	6	-113	-1148	31
-195	-108	523	-2172	31
-432	-220	-151	-2036	31
-232	-272	-214	-1846	31
-527	-201	-28	-860	31
-283	-32	-221	462	31
-244	119	733	2576	31
-214	160	881	4000	31
-428	63	81	3291	31
-462	-99	-362	516	31
-463	-87	-79	-1013	31
-307	-92	238	-1397	31
239	-154	332	-1754	31
-425	-176	287	-1910	31
-805	-170	542	-1044	31
-257	60	610	414	31
-34	349	162	1634	31
65	402	75	677	31
152	170	350	-2156	31
193	24	808	-4000	31
-137	-138	460	-4000	31
-355	-430	-521	-1300	31
-118	-487	-1017	4000	31
-239	-422	-734	4000	31
-106	-52	-332	4000	31
137	483	-108	2236	31
-29	556	-324	-520	31
-52	368	-1178	-1768	31
-244	348	-1020	-2180	31
-345	204	-316	-3987	31
-64	-15	346	-4000	31
339	31	1234	-2521	31
542	53	1207	663	31
345	232	217	4000	31
248	263	-328	4000	31
185	-14	-741	3379	31
240	65	-1280	-290	31
34	197	-327	-2965	31
-244	48	585	-2539	31
122	-253	839	-1191	31
69	-504	973	-197	31
-292	-519	483	943	31
-575	-404	195	479	31
-565	-255	-477	-703	31
17	-96	-1279	-3007	31
309	-79	-1236	-2239	31
192	47	-470	1422	31
-9	245	115	1441	31
-100	220	455	1843	31
-110	162	573	2604	31
130	72	260	469	31
249	118	270	192	31
73	168	346	1106	31
84	142	383	4	31
74	306	280	-1642	31
185	355	195	-1207	31
102	87	240	154	31
-321	-167	199	1532	31
-375	-246	67	1267	31
189	-320	-229	-567	31
560	-383	-182	-1517	31
-4	-446	2	-996	31
-177	-549	116	-427	31
-61	-535	202	-214	31
-164	-220	310	-224	31
247	72	297	-1371	31
140	217	-292	-1211	31
-34	236	-497	-1196	31
150	99	350	-559	31
224	300	801	668	31
235	529	340	666	31
-166	400	-446	3626	31
-252	166	-522	4000	31
-27	19	-338	1431	31
-316	-21	-1021	-955	31
-444	121	-816	-1351	31
31	389	-132	-1632	31
89	384	-214	-253	31
54	404	-214	-292	31
215	315	82	-898	31
184	-61	-121	-335	31
253	-305	-245	-741	31
87	-367	646	-510	31
87	-290	1391	-485	31
195	-353	435	-496	31
91	-471	-612	-518	31
33	-551	86	-1168	31
-127	-552	817	-510	31
-151	-351	328	387	31
-113	-77	93	-353	31
-29	155	199	1182	31
-69	225	309	4000	31
-320	353	157	4000	31
-362	407	-728	328	31
-257	292	-1110	-777	31
-157	179	-834	-1031	31
-43	-90	29	-1748	31
7	-276	442	-2781	31
25	-347	1100	-2987	31
82	-297	1564	-1104	31
39	-26	-538	314	31
-103	104	-1469	-1273	31
-349	7	123	56	31
-630	-66	315	4000	31
-765	164	-1031	4000	31
-113	405	-1168	322	31
943	328	-655	-1961	31
1309	215	-404	-1673	31
1189	169	32	-2039	31
516	157	620	-2456	31
131	193	593	-3078	31
9	22	305	-3386	31
-675	-216	364	-3875	31
-1447	-215	209	-2778	31
-1424	-162	437	-1232	31
-442	-67	503	1520	31
271	53	423	4000	31
803	135	260	4000	31
867	140	-32	1885	31
85	140	-69	227	31
-711	269	-257	-806	31
-1006	288	-202	-1717	31
-565	111	98	-1968	31
596	-55	301	-2099	31
1535	-104	578	-1354	31
1371	-108	636	28	31
1289	-130	-433	440	31
854	-99	-1253	-101	31
304	-104	-427	-1612	31
277	-238	283	-2310	31
14	-331	158	-520	31
119	-302	-356	4000	31
-158	-111	-718	4000	31
-351	112	-712	1505	31
-37	149	-476	796	31
-58	86	5	1584	31
-208	88	41	-250	31
-459	140	64	-120	31
-358	195	112	-289	31
-315	150	66	-868	31
-768	-19	324	-1403	31
-681	-135	403	-2797	31
-391	-210	491	-3421	31
-379	-230	801	-1737	31
-153	-237	681	222	31
-51	-232	-472	2726	31
-62	-71	-1403	4000	31
-6	121	-565	4000	31
39	331	815	2201	31
111	381	911	3083	31
405	254	31	-89	31
630	146	-1006	-3379	31
152	-12	-1075	-3584	31
-254	-82	184	-3488	31
-229	-44	1369	-2910	31
-197	-11	1406	-786	31
-48	20	743	1266	31
-25	38	728	1778	31
120	46	600	1499	31
352	-5	109	946	31
15	-42	-453	465	31
-364	-32	-1248	-84	31
-258	-26	-1164	-1807	31
-4	-71	17	-2981	31
57	-86	652	-1103	31
-229	-11	230	2437	31
-539	56	-21	4000	31
-648	102	-585	3462	31
-1346	73	-942	-104	31
-1874	7	-640	-746	31
-1023	-27	-343	-157	31
86	-21	-116	-804	31
653	-101	16	-1706	31
1049	-288	273	-1572	31
1536	-308	428	-1062	31
1426	-308	458	964	31
1452	-300	9	2156	31
1774	-121	-423	-562	31
1183	216	432	-2363	31
435	433	660	-1652	31
-4	271	-616	-166	31
-64	249	-780	1707	31
-61	337	227	2589	31
-28	270	1080	2925	31
125	150	467	687	31
-111	-31	-521	-986	31
-264	-127	-576	-634	31
-278	-141	-771	-948	31
-346	-33	-692	-827	31
-477	82	-288	-1445	31
-542	56	240	-1113	31
-429	-52	634	-588	31
-369	-148	736	-390	31
-403	-135	-38	-960	31
-418	-140	-704	-2930	31
-152	-85	65	-3283	31
202	-26	445	-1031	31
608	-122	166	3340	31
655	-137	-576	4000	31
200	-37	-513	4000	31
54	18	1745	276	31
-87	-37	2314	-1347	31
-162	-82	663	-1560	31
-184	-58	-520	-547	31
-302	-52	-1077	3811	31
-274	-16	-1175	1943	31
-449	-57	-1208	-2712	31
-573	-32	-468	-1403	31
-813	-8	137	-1138	31
-639	-183	-52	-1544	31
33	-164	61	-735	31
-204	3	190	-1069	31
41	277	264	-913	31
992	574	276	-1014	31
862	563	294	-954	31
526	443	587	-665	31
330	285	1042	-923	31
146	57	1323	-1076	31
-186	-11	1049	-400	31
-513	26	126	1760	31
-47	17	-1089	4000	31
-13	21	-2062	4000	31
-461	-22	-2332	2268	31
-13	26	-1181	-698	31
444	104	320	-1121	31
-34	-65	645	469	31
-227	-232	370	1135	31
2	-226	305	-375	31
195	-107	690	-682	31
242	77	892	-896	31
-114	194	476	-937	31
-94	140	-56	-746	31
124	-28	-294	-1133	31
-493	-136	-442	-2052	31
-1127	-192	-489	-3260	31
-319	-331	-286	-2927	31
271	-284	215	-692	31
304	-106	821	3244	31
411	-88	429	4000	31
-512	-2	-92	3168	31
-305	56	-252	1646	31
796	99	-809	281	31
853	120	-867	-403	31
695	29	-237	-815	31
641	14	190	-983	31
681	-4	159	-1144	31
552	6	175	-964	31
177	-51	201	-568	31
-262	-79	151	-595	31
-571	-21	149	-557	31
-841	4	124	-537	31
-1502	32	235	242	31
-2530	-14	272	96	31
-2155	-100	324	-1982	31
-803	-195	606	-3001	31
509	-216	541	-2173	31
2788	-170	667	1793	31
2818	-55	911	4000	31
1624	56	-99	4000	31
1131	121	-1516	300	31
148	220	-1980	-1181	31
389	162	-1563	-940	31
422	70	-781	284	31
237	19	232	224	31
252	-44	798	-191	31
-265	21	651	-862	31
-627	119	322	-1477	31
-570	147	433	-1663	31
-141	109	749	-1809	31
-174	16	523	-6	31
-255	-72	395	2981	31
-433	-89	-51	1649	31
-332	-22	-338	-213	31
-62	200	-180	728	31
-206	375	-460	728	31
-290	343	-740	624	31
-239	268	-254	-1008	31
-117	-16	290	-235	31
-249	-452	-490	1099	31
-111	-767	-1452	208	31
-52	-677	-375	459	31
-112	-157	962	-157	31
-152	229	837	-888	31
-248	382	653	-1180	31
-105	221	202	-1709	31
-259	37	441	-1683	31
-632	195	1270	55	31
-741	240	1684	943	31
-66	104	915	-210	31
805	-65	-408	-129	31
1034	-55	-810	-205	31
554	-83	-478	-1366	31
-222	-141	-362	-313	31
-1102	-47	-1738	1148	31
-1437	-103	-1650	1282	31
-381	-94	-159	452	31
408	-183	201	520	31
1022	-257	40	1837	31
1538	-142	10	1306	31
1018	-153	-32	597	31
618	-61	-1246	-96	31
297	43	-2298	-1392	31
46	122	-735	-2694	31
-114	280	1433	-2960	31
-280	337	1723	-1968	31
-221	217	1494	-515	31
-116	144	1556	1066	31
-23	232	1272	2427	31
-64	284	183	2280	31
-133	304	-844	62	31
-270	149	-871	65	31
-347	-35	-621	1401	31
-207	-12	-52	797	31
121	56	565	231	31
161	149	106	1510	31
-2	121	-60	1420	31
293	53	181	-772	31
269	6	161	-963	31
-102	-220	157	-756	31
-26	-382	27	-582	31
-71	-406	67	-582	31
-488	-395	376	-1766	31
-429	-247	1102	-3002	31
-77	-45	1265	-3118	31
-161	113	57	-56	31
-362	220	-1348	2841	31
-36	286	-1906	4000	31
16	311	-1345	2873	31
-542	239	-445	-612	31
-342	80	-11	-44	31
270	-35	29	-312	31
490	-35	48	-761	31
258	-8	100	-434	31
379	-78	-28	-993	31
541	-197	104	-1164	31
164	-310	540	-1575	31
86	-454	832	-961	31
-4	-458	452	-993	31
117	-321	223	-1101	31
109	-204	467	57	31
-289	-37	293	4000	31
-456	128	-576	4000	31
-536	183	-1368	1368	31
-285	253	-240	-1019	31
219	374	72	-1847	31
394	558	-739	-2141	31
202	534	-365	-2586	31
115	206	252	-1654	31
244	36	1075	45	31
259	-47	1138	196	31
139	-159	922	-334	31
-15	-207	659	2	31
-318	-170	376	759	31
-594	9	-144	640	31
-415	122	-931	2492	31
-167	13	-1305	3007	31
173	-57	-1445	1377	31
301	-97	-611	-266	31
-24	-221	-95	-1337	31
-176	-144	482	-705	31
-481	-21	726	-858	31
-485	37	107	-620	31
-20	66	-109	-365	31
405	-12	-286	-86	31
481	-56	-321	-655	31
393	-81	-210	-2148	31
864	-122	307	-2507	31
1004	-199	479	-2910	31
725	-288	497	-1871	31
467	-187	407	2776	31
-79	96	320	4000	31
-222	305	229	2206	31
-223	305	-581	-2354	31
-652	209	-742	-2279	31
-1116	142	-302	733	31
-896	100	64	3994	31
-37	56	-1	2040	31
619	-6	-16	532	31
371	-82	261	-494	31
-172	-144	242	-910	31
152	-253	134	-1217	31
369	-353	-230	-1762	31
390	-292	-318	-1438	31
195	-190	901	-685	31
-301	-102	1642	2452	31
-119	27	568	2714	31
-259	163	-427	-847	31
-497	306	-1411	-2696	31
-450	400	-1739	-2135	31
-229	483	-506	-530	31
243	388	605	2399	31
-109	139	819	2495	31
-607	42	768	31	31
-578	-86	786	-367	31
-593	-217	230	-17	31
-613	-210	-307	139	31
-644	-178	-139	-233	31
-1066	-130	208	-1286	31
-969	27	669	-2421	31
-47	147	1134	-3241	31
1057	192	413	-3210	31
2244	152	-1667	-1527	31
2330	6	-2495	1910	31
1488	89	-635	4000	31
120	161	1307	4000	31
-1768	69	1110	4000	31
-1989	-9	89	2339	31
-245	-42	-200	651	31
1254	-49	-2	-1870	31
1499	-1	-792	-2106	31
941	39	-1125	-1271	31
1044	-130	-565	-1559	31
1147	-207	-272	-1438	31
16	-197	-280	-1530	31
-917	-245	-987	-753	31
-109	-199	-967	498	31
683	-82	-92	1044	31
234	107	760	-455	31
134	167	683	-2090	31
-98	62	929	-399	31
-62	21	1539	907	31
-255	-11	709	285	31
-785	-74	228	299	31
-274	-83	452	551	31
-34	-19	418	527	31
-19	74	400	151	31
78	89	498	-16	31
-136	59	423	-116	31
-117	92	-22	-875	31
-130	111	-508	-1520	31
-266	43	-204	-1860	31
-242	21	402	-1058	31
-379	0	-264	1334	31
-383	-94	-1068	3577	31
-161	29	-526	3370	31
-187	293	357	710	31
-196	445	699	-1540	31
-19	313	-106	-1360	31
-385	20	-1245	-809	31
-710	-46	-1820	66	31
-129	-211	-1242	1011	31
231	-475	257	108	31
272	-588	966	-1350	31
352	-433	864	-2070	31
244	-199	186	623	31
122	-197	209	3318	31
-89	-72	113	1061	31
-99	165	-476	-469	31
-18	372	46	294	31
-136	361	193	1127	31
-426	283	-37	1173	31
-402	275	-108	-1755	31
178	144	181	-2805	31
322	89	663	-1729	31
207	7	598	-133	31
268	-36	383	1714	31
130	-61	-327	171	31
69	-109	-413	-2372	31
76	-112	674	-1855	31
49	-178	618	1118	31
-274	-320	-475	3866	31
-435	-440	-995	4000	31
-41	-204	-596	1169	31
-204	44	-407	-262	31
-312	201	-985	-201	31
109	519	-1042	-480	31
338	511	-212	-678	31
413	253	994	-1408	31
397	131	1002	-1166	31
412	53	451	-861	31
299	-1	244	-632	31
41	-54	89	-1067	31
-119	-132	221	-1917	31
-89	-197	697	-2868	31
-199	-245	894	-3664	31
-304	-243	209	-2211	31
-544	-211	-185	2223	31
-1147	-124	-52	4000	31
-1082	-39	-52	3571	31
-626	-68	-512	4000	31
-146	-75	-932	3854	31
628	36	-762	-467	31
1106	112	-279	-1952	31
1315	159	-148	-1993	31
1232	318	22	-1303	31
820	290	252	-1552	31
523	66	151	-1244	31
236	27	250	-1151	31
22	103	235	-1150	31
-270	187	368	-1272	31
-392	186	774	-1944	31
-230	-9	1430	-3212	31
-151	-139	2108	-3564	31
-119	-143	1420	-582	31
-270	-245	-778	2083	31
-453	-240	-2339	4000	31
-561	-108	-2294	4000	31
-377	-25	-1558	2429	31
-101	111	-1056	841	31
-67	231	-615	750	31
311	191	-430	641	31
533	76	-375	-258	31
422	-1	281	-1205	31
332	-97	688	-806	31
76	-104	837	-1269	31
1	115	606	-910	31
-57	285	475	-949	31
89	45	530	-963	31
174	-424	-334	-825	31
-502	-688	-100	-1246	31
-791	-578	1065	-206	31
-317	-220	796	1823	31
-40	297	628	786	31
-186	542	788	-1855	31
-833	235	330	-2108	31
-698	174	-234	-1128	31
455	219	-48	2195	31
686	40	-243	4000	31
389	-31	-1226	2665	31
255	-96	-1425	-183	31
226	-67	-423	-3464	31
519	-42	1783	-4000	31
342	-96	1813	-4000	31
-374	-135	-171	189	31
-532	-73	-1403	4000	31
-229	69	-1824	4000	31
-194	107	-1130	4000	31
-448	164	-274	2086	31
-226	156	-27	999	31
210	145	-68	545	31
300	167	154	-916	31
689	69	385	-1280	31
732	57	540	-1585	31
487	29	639	-1419	31
47	-74	354	-1063	31
-223	-132	-194	-1521	31
231	-95	-606	-1530	31
282	-44	52	-2752	31
117	-140	1428	-3483	31
-180	-191	1526	-3263	31
-233	-166	-77	10	31
-52	-210	-1032	4000	31
-121	-242	-370	4000	31
-14	-147	-67	2974	31
-124	36	-75	1330	31
-75	315	-2	1351	31
-75	407	216	1860	31
-304	207	-606	500	31
-295	114	-1375	-1678	31
-179	-69	376	-930	31
90	-220	472	651	31
75	-244	71	-701	31
51	-279	387	-1137	31
91	-187	535	-270	31
-27	-50	462	-126	31
15	316	-1284	-431	31
-49	711	-1609	-771	31
-185	746	-220	-818	31
-177	437	511	-1507	31
-109	12	239	-1594	31
-89	-263	498	-1006	31
-273	-284	969	793	31
-522	-211	908	2704	31
-256	-54	329	1652	31
259	52	-636	401	31
515	-111	-669	-315	31
683	-124	-561	-677	31
483	-143	-180	-1072	31
204	-196	1174	-2694	31
-61	-98	1269	-3110	31
-433	-121	-502	-1551	31
-463	-167	-783	2731	31
-517	-180	415	4000	31
-630	-66	447	3582	31
-390	189	-56	131	31
-103	395	154	-1353	31
83	375	427	-2629	31
144	165	445	-1910	31
-146	32	391	305	31
175	107	-329	1699	31
731	111	-782	132	31
494	-51	-493	-1240	31
152	-128	-398	154	31
47	-144	-546	1549	31
515	-117	-328	1839	31
788	-131	-136	847	31
639	-68	317	-628	31
673	-7	1166	-1867	31
192	-82	247	-1509	31
-320	-23	-1290	-184	31
-448	43	-1605	2881	31
-187	59	-1562	3250	31
-109	111	-465	-563	31
-521	92	1386	-1820	31
-250	-13	1911	-1900	31
61	-42	-105	-1077	31
-4	-22	-1717	-555	31
-53	-16	-669	-711	31
-85	1	378	1240	31
-64	-3	677	1141	31
-39	46	585	-488	31
44	-19	355	-50	31
147	-54	396	27	31
125	19	295	-550	31
-46	-6	365	-442	31
60	26	294	-735	31
-7	-34	-68	-988	31
-182	-172	-284	-1419	31
-136	-281	346	-2784	31
-337	-411	829	-4000	31
-296	-395	791	-3445	31
26	-282	971	1646	31
54	-56	412	4000	31
-250	153	-316	4000	31
-221	164	24	2253	31
-126	190	446	339	31
-285	440	-624	640	31
-525	737	-1493	1805	31
-1071	722	-1443	724	31
-623	458	-1191	127	31
176	185	-924	-775	31
472	77	-698	-650	31
799	-16	122	-405	31
1007	-252	468	-1049	31
974	-393	354	-1351	31
685	-561	-289	-2605	31
675	-672	-1042	-2942	31
406	-307	208	-2810	31
-7	165	2012	405	31
-173	476	2480	4000	31
-265	506	1174	4000	31
-55	190	-386	1004	31
-112	163	-443	-1901	31
-249	225	-548	-1707	31
-209	100	-209	-1806	31
-191	-9	-44	-1131	31
151	-113	-332	-1589	31
392	-105	-355	-1475	31
211	-157	-458	-969	31
-175	-200	-34	-1812	31
-289	-214	37	-1810	31
-305	-281	156	537	31
-433	-237	315	3676	31
-179	-149	434	2286	31
-4	-51	535	981	31
282	30	159	2352	31
207	15	-221	2422	31
-431	-90	-704	1850	31
33	-129	-558	460	31
567	-56	464	-63	31
-36	45	886	830	31
-327	208	121	648	31
-187	220	-462	31	31
-352	-28	-425	-907	31
-271	-144	-24	-2060	31
-7	39	681	-1946	31
-47	142	466	-1743	31
-56	8	-187	-1847	31
-46	-44	-116	-370	31
-130	150	111	504	31
-10	352	-834	352	31
-99	336	-2142	691	31
-545	187	-1079	501	31
-315	81	-216	-813	31
353	32	-784	-1153	31
671	-60	-839	672	31
597	-136	-316	67	31
93	-182	777	-775	31
-324	-223	1462	-570	31
-432	-187	2249	-270	31
-134	-114	1852	1135	31
183	21	326	1491	31
11	62	-413	1797	31
127	-100	-220	421	31
139	-222	425	-930	31
156	-233	212	-885	31
329	-155	-184	-1545	31
155	49	-141	-1285	31
465	189	200	1109	31
304	132	45	3528	31
-43	222	-363	1260	31
207	350	-587	-1031	31
-762	296	-249	-1004	31
-2018	227	862	-2650	31
-1660	112	1230	-2476	31
-61	11	101	-1366	31
639	-78	-1210	1001	31
540	-112	-832	2476	31
846	-119	154	550	31
843	-4	-139	3085	31
1423	194	-912	4000	31
1370	141	-1147	1634	31
699	170	-1006	-2268	31
139	148	-237	-2046	31
-663	-129	173	-1537	31
-1124	-318	287	-1975	31
-1039	-401	450	-1935	31
134	-328	432	-1810	31
551	-260	797	-1876	31
723	-222	838	-2759	31
901	-72	308	-1697	31
383	200	-162	1004	31
279	423	82	2121	31
-143	268	157	2586	31
-42	93	-194	1424	31
44	-54	-144	452	31
-654	-194	-185	974	31
-492	-108	-195	500	31
-51	-178	-96	81	31
-206	-392	-71	-997	31
-507	-425	-106	-1499	31
-385	-134	126	-1161	31
-144	131	465	-1023	31
-221	159	640	-12	31
-147	105	633	1279	31
-63	189	-273	2773	31
-143	407	-1137	2888	31
-295	276	-1830	1601	31
-122	117	-1220	-66	31
168	75	924	863	31
-188	24	1400	1599	31
-342	124	1469	-482	31
-76	185	1513	-558	31
30	-82	733	-1401	31
81	-399	9	-1378	31
-12	-367	-699	-651	31
-58	-412	-837	-783	31
47	-357	-379	-499	31
313	-133	-310	-530	31
302	-52	-649	-282	31
147	205	-216	-1445	31
186	414	458	-999	31
-66	456	816	558	31
-102	573	653	1221	31
-68	580	-355	618	31
-125	394	-776	325	31
-143	174	-739	1091	31
-186	-9	-819	755	31
39	-57	-311	464	31
-106	-51	-112	265	31
-107	-115	-81	595	31
-63	-175	237	165	31
-329	-199	268	-1015	31
-235	-143	-137	-1772	31
-141	-175	-465	-1461	31
6	-229	571	-1265	31
295	-228	1944	-2251	31
494	-263	2077	-1073	31
593	-257	661	-2050	31
437	-260	-203	-611	31
-130	-74	-360	4000	31
-809	278	-2150	4000	31
-1337	242	-2562	-153	31
-1654	-14	-751	1410	31
-1380	-56	-199	2056	31
-268	7	-249	1728	31
821	206	284	-414	31
1296	322	250	-1242	31
1188	84	555	-1499	31
784	-62	776	-1416	31
376	-70	673	-1559	31
168	-169	768	-1002	31
407	-91	180	1418	31
748	25	-231	1119	31
1024	109	264	-918	31
542	82	761	-1867	31
270	-158	49	-2878	31
340	-127	-753	-1908	31
374	-2	-817	1682	31
384	113	-82	4000	31
-249	283	490	2422	31
-125	259	-272	-2141	31
29	152	-351	-1762	31
-203	83	-39	108	31
-359	69	71	1592	31
-215	-55	-87	2071	31
24	-180	-41	-320	31
-220	-249	225	-735	31
-74	-332	-6	-236	31
-289	-325	122	-787	31
-407	-311	66	-800	31
-335	-273	290	-1682	31
-380	-195	748	-3471	31
161	-2	855	-4000	31
171	337	540	-4000	31
-132	576	-41	-179	31
-437	496	-172	4000	31
-1044	297	-324	4000	31
-722	278	-591	3664	31
-15	267	-499	926	31
14	97	-422	-1109	31
282	-77	-655	-1524	31
515	-110	-650	-1950	31
344	-90	-338	-1735	31
245	-79	-82	-1104	31
83	-115	87	-1765	31
-410	-139	368	-1781	31
-1007	-137	568	-1757	31
-417	-126	666	-677	31
610	104	738	187	31
793	213	397	-1773	31
856	114	332	-3019	31
438	151	921	2141	31
26	28	478	4000	31
-29	-257	-1509	4000	31
-109	-496	-2278	4000	31
21	-392	-1270	3036	31
-212	-39	109	-438	31
-267	-32	915	-1006	31
-86	-12	179	-658	31
-196	72	-287	-693	31
-322	56	-592	-902	31
-290	73	-279	-2049	31
62	20	681	-2347	31
227	15	970	-2048	31
150	-75	852	-696	31
-124	-164	359	1118	31
-402	-156	485	2790	31
71	-165	243	1576	31
388	-57	83	-1735	31
-57	122	-601	-133	31
-29	293	-1681	2242	31
-25	458	-433	685	31
-421	363	1059	-17	31
-119	116	621	1811	31
39	61	-646	2536	31
-164	-110	-723	-55	31
-303	-177	317	-2156	31
-426	-106	302	-1830	31
-317	-159	190	204	31
-259	-57	-402	2035	31
90	66	-2024	1485	31
44	182	-774	920	31
-583	55	1346	-194	31
-84	-305	1434	-1815	31
593	-343	683	-2196	31
294	-39	156	-1941	31
755	257	352	-2006	31
1364	327	749	-326	31
1222	187	1054	1000	31
776	11	325	-2492	31
222	52	-421	-3035	31
205	87	-742	-132	31
77	48	-675	2417	31
101	-17	-847	4000	31
-48	-144	-1075	2959	31
-264	31	-274	1482	31
-360	369	-127	1012	31
-374	345	195	197	31
-113	-33	660	-635	31
-272	-193	390	-713	31
-89	-298	32	-696	31
-190	-447	-410	-264	31
-346	-288	-66	-552	31
-134	6	86	-976	31
-91	304	-236	-385	31
-12	236	-468	-792	31
-131	69	-289	-1793	31
-12	-35	896	-1492	31
148	-94	1224	-252	31
210	9	943	1298	31
141	-31	549	1309	31
-37	-9	-870	-986	31
19	-129	-1433	-1377	31
23	-279	-490	-445	31
-9	-280	229	1231	31
16	-218	969	1146	31
-182	-12	632	-1018	31
-446	8	225	1991	31
-235	57	197	4000	31
-287	164	-682	905	31
-499	102	-337	-772	31
-59	-4	-155	-238	31
-72	-125	-206	457	31
-184	-47	-282	-317	31
212	151	-417	-1512	31
292	280	-16	-1290	31
308	415	-136	-1274	31
326	215	-220	-2512	31
-16	-121	706	-3276	31
-376	-184	1577	-803	31
-69	-238	481	4000	31
448	-130	-400	4000	31
224	144	-475	2504	31
-234	290	-794	189	31
-52	337	-1261	-2014	31
89	361	-852	-3285	31
-252	384	548	-2582	31
89	247	556	-1048	31
529	-24	119	2811	31
32	-147	192	2113	31
-181	-191	736	-319	31
2	-206	785	635	31
-48	-140	169	455	31
-196	-120	-77	-1541	31
-1392	-111	-470	-2143	31
-2219	-193	141	-1938	31
-1163	-329	1092	-3038	31
42	-336	418	-4000	31
1077	-217	-457	-3626	31
1753	4	-164	2161	31
1691	127	-16	4000	31
1563	208	-543	4000	31
1252	313	-1193	4000	31
480	199	-1245	1135	31
-139	24	-626	-2119	31
-441	-58	-293	-1836	31
-641	-71	62	-1504	31
-142	6	280	-1595	31
-55	-41	128	-1457	31
-127	-133	-238	-2165	31
94	-149	-383	-2876	31
-200	-162	1112	-3446	31
-93	-82	2418	-870	31
-46	-29	1170	4000	31
-54	-86	-207	4000	31
-2	-80	-397	1643	31
-142	-3	-289	-2564	31
-152	4	-157	-2741	31
-138	169	-363	-1500	31
-84	462	-191	-32	31
-380	428	-72	1673	31
-344	287	-191	1948	31
135	191	-238	952	31
242	27	-274	-367	31
300	-64	-39	-1556	31
383	-181	466	-2342	31
207	-317	1160	-3005	31
-189	-395	1277	-1471	31
-495	-415	481	1775	31
-523	-304	51	3278	31
-1285	-135	1047	2602	31
-2313	49	541	3170	31
-1849	244	-2358	4000	31
-786	398	-3244	3153	31
-47	388	-2019	14	31
1039	260	-1260	-1687	31
2178	118	-580	-1742	31
2609	-1	57	-1550	31
2048	17	776	-738	31
1091	-16	1109	-1351	31
631	-135	868	-2123	31
201	-145	721	-2591	31
-37	-156	465	-2082	31
-102	-233	276	26	31
-290	-66	623	-565	31
-252	252	967	-367	31
-231	224	-2	3115	31
-244	136	-458	4000	31
-235	156	364	4000	31
-94	16	52	880	31
-76	-156	-365	214	31
54	-190	-429	-639	31
158	-14	-324	-1310	31
-222	66	71	-587	31
-280	59	-30	-1457	31
-645	47	70	-1634	31
-879	-69	213	-1955	31
46	28	367	-1838	31
195	23	404	-1098	31
-515	43	519	-323	31
-232	96	683	-1387	31
-93	-192	646	-2339	31
-320	-283	500	-502	31
82	-320	591	268	31
6	-252	1015	2882	31
-31	31	-185	4000	31
49	179	-1990	4000	31
6	126	-2794	2498	31
177	-86	-2229	1352	31
-106	39	-548	-63	31
-384	262	-23	-795	31
-186	217	46	-1540	31
109	17	276	-2056	31
19	-197	445	-1469	31
-375	-211	736	-1566	31
-944	3	403	-1332	31
-1258	322	-680	-1529	31
-758	365	-1291	-1802	31
351	-5	606	-2179	31
1074	-88	2448	-2371	31
1525	134	1915	-19	31
1778	-7	737	3318	31
1009	-139	-654	4000	31
508	-106	-874	830	31
292	-62	-397	-1966	31
-124	32	-221	-746	31
29	195	-70	439	31
216	235	-378	-385	31
9	68	-363	667	31
-245	24	-162	2278	31
-366	-49	-140	738	31
-199	-86	-79	-128	31
-119	-81	92	145	31
-4	-143	49	-1118	31
168	-142	142	-2913	31
61	-144	387	-3731	31
156	-81	289	-3238	31
161	-65	274	-27	31
52	-71	307	4000	31
-73	39	292	4000	31
-167	162	196	1139	31
-279	240	-49	96	31
-365	171	-391	1428	31
-307	72	-523	2764	31
-442	44	-301	1983	31
-139	-31	-86	-547	31
240	-67	115	-553	31
-105	-71	106	-1141	31
-262	-104	-42	-1263	31
-59	-95	-87	-708	31
-149	-87	-5	-1282	31
-145	-86	285	-1693	31
7	-116	322	-2831	31
232	-167	285	-3822	31
222	-181	914	-4000	31
-54	-187	1336	-900	31
-50	-120	509	2720	31
-78	-69	-663	3634	31
-72	-37	-1476	4000	31
-12	62	-1541	4000	31
-196	48	-1643	-294	31
-311	69	-1395	-1512	31
-494	254	-630	48	31
-997	375	-41	-1165	31
-744	538	788	-2115	31
183	591	31	-1186	31
645	282	-553	-1630	31
825	137	-361	-884	31
803	21	216	-658	31
688	-233	1790	-801	31
518	-224	1880	-552	31
-69	-295	1663	-1269	31
-1568	-307	1268	-1207	31
-3342	-126	1179	-1579	31
-3318	-27	967	-1670	31
-1137	-62	473	679	31
1559	-23	266	4000	31
3321	292	-1373	4000	31
3324	280	-2308	-396	31
2202	-2	-1913	-1799	31
1431	-29	-793	-1071	31
752	47	-500	114	31
377	-7	-805	87	31
304	-112	-409	-641	31
23	-75	97	-1056	31
-42	-69	743	-971	31
-155	-178	427	-1227	31
-281	-340	-1009	-1694	31
-665	-267	-1589	-600	31
-1190	-140	453	1233	31
-1280	-188	1781	3648	31
-839	-21	964	3168	31
75	187	485	384	31
446	435	374	-954	31
607	500	393	-1262	31
709	254	-192	-1026	31
308	141	310	-59	31
121	98	2100	440	31
-178	116	1750	-7	31
-210	47	-475	843	31
-112	-57	-2027	1971	31
-302	-77	-2497	1562	31
-230	-49	-1414	1297	31
-186	99	-340	1106	31
-73	87	583	-681	31
-3	5	847	-1634	31
44	-6	-169	-904	31
84	-27	248	-1760	31
-107	-126	401	-3195	31
-284	-186	325	-3727	31
-354	-147	15	-2446	31
-238	-187	-124	1785	31
-372	-136	502	4000	31
-567	-82	290	2922	31
-550	-109	470	316	31
-467	-49	224	3801	31
-215	60	-288	4000	31
-217	129	-343	1755	31
363	79	-309	-672	31
1028	15	-114	-477	31
717	-16	-91	-563	31
277	-43	-108	-991	31
125	-68	-73	-1381	31
262	-106	-13	-1437	31
32	-160	-168	-1960	31
-359	-157	-137	-2349	31
-525	-197	66	-1943	31
-84	-476	312	-1269	31
527	-510	416	171	31
1	-67	303	1146	31
-493	393	239	1735	31
-190	626	271	1464	31
44	448	166	-648	31
131	332	-234	-823	31
-312	451	-600	-798	31
-1693	256	-625	-2131	31
-3215	-22	-402	-2009	31
-2658	-116	-789	-131	31
-106	-112	-774	2232	31
2290	-125	541	2437	31
3987	-69	1103	1194	31
2863	30	905	114	31
1054	67	1005	814	31
745	60	694	39	31
-26	-69	774	-2145	31
-572	-162	1609	-1008	31
-1081	-212	1431	-1822	31
-951	-254	48	-2896	31
126	-177	-2160	1915	31
716	30	-4000	4000	31
537	251	-4000	3890	31
351	400	-2305	3083	31
195	444	849	2306	31
-192	441	1739	1185	31
-546	418	684	56	31
-918	217	440	-1540	31
-421	-134	446	-2792	31
538	-479	619	-2163	31
794	-515	476	-1798	31
1073	-278	368	-1805	31
942	-170	458	-1271	31
282	-142	390	-1131	31
119	-118	463	-1044	31
-549	-140	283	-1780	31
-1353	-69	321	-2956	31
-1451	-3	515	-4000	31
-1325	41	1366	-3812	31
-1305	68	2501	1156	31
-1052	-5	659	4000	31
482	66	-2425	4000	31
2150	129	-3150	2159	31
2626	148	-1800	-246	31
1215	248	-112	-1653	31
27	255	35	201	31
249	182	-490	-449	31
-317	-106	-656	-1075	31
-327	-273	575	-1074	31
-583	-164	1060	-1522	31
-1107	-241	679	-767	31
-505	-249	1080	-783	31
-226	-63	1015	-315	31
-422	-36	556	160	31
-1123	-92	-189	811	31
-481	-82	-230	249	31
909	-79	280	-1723	31
1245	15	377	-2437	31
1062	178	-114	-449	31
-32	292	-124	2184	31
-471	325	-877	2862	31
-115	228	-1420	2865	31
-279	73	4	843	31
-435	45	-58	-1845	31
145	134	-274	-1033	31
762	247	453	1948	31
338	263	327	2750	31
-184	104	-287	1377	31
-162	21	-74	656	31
136	-89	398	259	31
137	-156	101	-54	31
367	-136	224	-442	31
290	-242	161	-517	31
-12	-234	372	-559	31
74	-245	638	-690	31
-240	-280	338	-861	31
-144	-195	9	-1139	31
-277	-107	-447	-246	31
-667	28	-443	580	31
-1219	128	-230	-217	31
-2172	199	-185	-521	31
-1859	216	-294	-518	31
-91	155	-60	-683	31
1452	97	534	147	31
1820	59	482	662	31
1450	51	-142	3210	31
1184	-28	-270	3967	31
726	-97	-396	1025	31
260	-114	-600	-322	31
190	-117	-460	-334	31
-354	32	-447	232	31
-367	144	-244	-3	31
-133	120	-643	-766	31
-301	51	-1249	-1860	31
-415	-41	348	-2850	31
-472	-94	2506	-2988	31
-117	-170	2118	-2474	31
-241	-187	716	1043	31
-221	-79	-369	4000	31
369	44	-878	4000	31
402	116	-1177	-816	31
139	150	-999	-3039	31
-36	228	-52	-2618	31
25	118	96	-887	31
47	-175	197	1018	31
-60	-174	-45	2814	31
-77	-33	-17	654	31
-25	41	263	-608	31
-47	49	33	226	31
-146	-66	124	-2200	31
-22	-70	198	-2532	31
97	-128	613	-1536	31
148	-198	775	200	31
86	-147	448	2195	31
-14	-152	-97	1961	31
77	-94	157	2247	31
-119	36	183	1507	31
-189	162	-665	-74	31
-37	152	-813	-180	31
-186	209	-659	-712	31
-126	295	289	-1779	31
48	192	803	-2395	31
-1	178	623	-1919	31
-49	192	395	-667	31
40	193	-472	226	31
-76	38	-1248	1332	31
-109	-108	-1080	242	31
55	-22	-264	-246	31
24	86	-116	1249	31
73	160	125	716	31
-29	34	354	199	31
-109	-95	11	-375	31
-52	-160	-231	-1069	31
-14	-224	540	-1034	31
27	-235	1614	-778	31
-2	-270	814	-760	31
133	-214	-1002	-106	31
254	-105	-972	1723	31
182	49	124	2309	31
-164	133	17	1614	31
-478	158	-121	842	31
-319	186	11	739	31
103	121	491	244	31
268	85	615	-209	31
359	83	74	49	31
294	53	-210	-705	31
-288	-8	-230	-1266	31
-974	-7	-42	-1080	31
-1428	-29	178	-1362	31
-499	-148	501	-1955	31
818	-284	930	-2419	31
1098	-391	1263	-2639	31
558	-381	654	-1069	31
-553	-312	-300	2302	31
-334	-162	-983	4000	31
404	61	-686	4000	31
460	330	-322	766	31
613	596	-1358	689	31
463	564	-1676	1853	31
329	382	-836	1494	31
681	202	-37	-345	31
497	-43	348	-1447	31
-278	-58	440	-597	31
-147	-19	-56	-908	31
55	-119	-307	-1474	31
26	-170	509	-1916	31
76	-147	1112	-1886	31
-247	-73	1155	-1500	31
-40	-10	249	-265	31
-65	1	-971	803	31
-90	14	-1184	1587	31
31	57	-1610	1690	31
-257	-22	-1179	-2042	31
-161	-145	608	-4000	31
-334	-227	1027	-4000	31
-381	-268	1130	-4000	31
84	-183	1089	-389	31
77	16	789	4000	31
-252	200	800	4000	31
-392	219	-2	3724	31
-631	164	-305	-1507	31
-227	110	-61	-3753	31
257	149	161	-685	31
-510	349	170	858	31
-463	428	-146	-993	31
297	140	-353	-1614	31
480	-118	-279	-1601	31
551	-174	245	-650	31
-56	-230	972	-420	31
-768	-208	1516	-1141	31
-910	-164	904	-2690	31
-881	-75	-310	-3961	31
143	-28	-406	-2026	31
1653	-56	-156	3300	31
1524	52	-1245	4000	31
364	151	-2138	3323	31
-226	27	-2049	-1338	31
-332	-131	-1470	-1218	31
-287	-154	-588	-320	31
-126	-175	-65	-396	31
136	-172	222	-1037	31
387	-67	365	-523	31
375	76	531	-407	31
-82	64	641	-233	31
-315	-106	539	442	31
132	-177	260	480	31
407	-56	227	-1088	31
417	129	521	-1366	31
730	129	856	501	31
642	22	949	3750	31
323	34	410	4000	31
219	185	-86	2481	31
-37	468	-378	-388	31
-120	644	-311	215	31
-166	368	-88	-311	31
-303	-36	-62	51	31
-373	-196	146	428	31
-569	-264	121	659	31
-392	-262	-215	735	31
-51	-207	-716	-374	31
-127	-39	-272	-1946	31
-97	103	917	-2105	31
-16	60	1047	-1203	31
67	70	588	121	31
-98	82	139	1748	31
-604	3	-175	1794	31
-487	-38	-264	2784	31
-25	56	-265	3661	31
-234	106	-103	957	31
-480	-24	-99	-647	31
-164	-174	-152	-136	31
-60	-248	-103	-513	31
313	-187	214	-761	31
751	-109	778	-314	31
558	-82	550	6	31
329	-52	-250	688	31
-68	-120	-467	1093	31
126	-203	-827	-446	31
412	-126	-1137	-986	31
94	57	-791	-424	31
-109	177	-616	510	31
-445	370	-521	2347	31
-877	592	-310	1020	31
-897	405	145	-498	31
-783	40	455	-1583	31
-647	-114	526	-2421	31
287	-93	713	-1565	31
578	-80	766	-2319	31
195	-145	397	-3507	31
549	-175	-408	-3000	31
1064	-162	-730	315	31
1117	-41	-948	3782	31
934	122	-201	4000	31
137	102	1024	3649	31
-1044	-17	166	750	31
-860	99	-763	89	31
99	239	510	-259	31
809	152	1831	-959	31
826	-193	392	-1270	31
379	-430	-1143	-1374	31
11	-129	-909	-680	31
-187	10	87	-224	31
-155	-91	418	-1094	31
-233	-194	24	-1694	31
-217	-286	180	-878	31
-166	-224	37	637	31
-162	-121	17	2487	31
-247	-16	81	1592	31
-305	-20	26	-1158	31
-180	114	149	-2571	31
-44	213	578	-3972	31
-98	130	782	-4000	31
-599	77	516	-3157	31
-916	34	547	2590	31
-927	150	116	4000	31
-581	197	-1079	4000	31
245	169	-1856	-8	31
694	265	-1063	-2059	31
653	357	182	-2355	31
520	329	410	-1545	31
482	150	-404	-111	31
331	-83	-46	1500	31
197	-210	1122	469	31
215	-189	340	14	31
47	-115	-818	1220	31
-216	13	-905	-137	31
-340	12	-556	-966	31
-117	-95	24	-844	31
-42	-129	686	-1179	31
-108	-147	556	-1336	31
172	-2	-69	-1356	31
223	211	-194	-816	31
-100	174	726	-711	31
-267	27	1096	-715	31
-106	-46	528	145	31
319	-167	337	2001	31
297	-312	278	2914	31
122	-263	139	2333	31
26	-75	-327	1951	31
-379	-126	-460	1662	31
-365	-157	32	-399	31
-416	61	616	-2534	31
-314	79	740	-2116	31
-321	-81	1062	-28	31
-478	-220	1240	4000	31
96	-136	209	4000	31
294	117	-1613	1990	31
758	327	-2932	535	31
1093	431	-2260	-164	31
500	312	-837	-1066	31
216	150	-511	-2161	31
61	47	-369	-1557	31
-41	-43	22	114	31
191	-24	-32	785	31
209	80	387	-933	31
-301	102	543	-1820	31
-606	12	210	-935	31
-924	-63	715	-812	31
-1575	-94	962	-1110	31
-1596	-121	641	-1842	31
-844	-32	520	-1446	31
169	34	582	469	31
529	-36	408	2692	31
630	-39	-97	1747	31
1309	-107	-565	607	31
1706	-192	-1057	864	31
1495	-170	-595	-1474	31
887	-134	116	-1319	31
-73	-64	140	1921	31
-477	35	263	2982	31
-215	147	407	459	31
-7	187	865	-1159	31
-14	104	852	-1113	31
83	41	277	-1219	31
152	114	-121	79	31
-337	163	-382	1081	31
-799	21	-327	1293	31
-1069	-157	-529	59	31
-778	-34	-443	-1191	31
-8	210	-195	-1202	31
403	216	-236	-1181	31
765	99	249	-1164	31
818	-4	933	-1344	31
356	-52	466	-1484	31
96	-68	-648	-1813	31
339	-32	-347	-1886	31
425	70	314	-902	31
-112	-12	391	2146	31
-715	-390	305	4000	31
-573	-420	202	3710	31
-438	-62	746	1778	31
-229	119	317	2556	31
385	210	-1280	4000	31
310	27	-1871	1450	31
62	-42	-1184	-2441	31
-116	119	-565	-2614	31
-435	81	-259	-3115	31
-799	122	42	-2627	31
-513	126	235	-1113	31
580	18	893	686	31
843	-97	978	1218	31
451	-164	-138	-247	31
123	-233	-1010	-554	31
-59	-112	-972	-556	31
-9	120	-1008	-1261	31
-50	58	-42	-1790	31
32	4	1850	-1337	31
26	-29	1499	984	31
-74	-22	441	2149	31
-74	-22	196	1790	31
-155	46	-161	872	31
-97	210	66	-300	31
12	191	325	-752	31
62	233	114	-1410	31
-46	157	81	-713	31
-194	-21	-75	-485	31
-79	-4	-153	-572	31
-16	-2	-137	103	31
-36	51	167	-32	31
2	79	696	-578	31
-26	-19	36	-2009	31
-59	-72	-701	-3192	31
-109	-244	-192	-3113	31
-276	-282	899	-75	31
-595	-105	587	4000	31
-738	-84	-1082	4000	31
-276	-16	-1112	2852	31
34	33	-972	-142	31
-369	-40	-27	-1248	31
-468	29	1036	-1103	31
-347	107	106	-1142	31
-483	76	1	-1297	31
-275	116	231	-697	31
36	160	418	54	31
269	85	42	1064	31
567	-16	-151	174	31
235	-145	15	-1392	31
-806	-208	-6	-2567	31
-1219	-189	576	-2566	31
81	-155	766	117	31
1601	-56	730	3442	31
2672	32	-30	4000	31
2919	79	-668	2926	31
1904	-9	-646	-740	31
1098	-53	-417	-2935	31
304	22	-294	-1690	31
-1	112	-623	202	31
43	246	-495	1211	31
-545	229	-509	1291	31
-681	195	-475	988	31
-501	76	-220	383	31
-362	-107	-76	-372	31
-289	-92	50	-530	31
-414	-47	349	-614	31
-287	-27	594	-795	31
-225	55	772	-225	31
-315	198	1134	-525	31
-447	165	599	498	31
-350	114	-283	2154	31
-121	153	-547	1399	31
-269	-49	-594	725	31
-276	-265	-890	60	31
-51	-287	-748	-40	31
82	-55	-219	-1184	31
-48	70	95	-1713	31
-154	-106	366	-729	31
-104	-109	-61	-803	31
-246	-119	114	-1212	31
-297	-138	1054	-2522	31
-267	-109	1150	-3441	31
-203	-137	1163	-1650	31
-177	-57	1426	3159	31
-111	24	353	4000	31
-12	91	-1759	3897	31
-167	104	-2043	1632	31
-267	33	-1060	-49	31
-189	-26	-352	-524	31
150	-72	74	-1233	31
438	-80	290	-1787	31
265	-27	768	-1560	31
-11	-11	616	-1488	31
-171	-79	294	-558	31
-194	-160	27	-407	31
-310	-219	-230	-994	31
-327	-178	165	-1476	31
-100	47	580	-161	31
-351	240	514	1599	31
-742	155	-79	1133	31
-502	-11	126	-1058	31
282	67	964	-1781	31
1255	335	760	1355	31
1791	536	-840	4000	31
992	523	-2404	3243	31
144	273	-1847	969	31
-507	91	-392	982	31
-1047	-12	47	-202	31
-237	-45	348	-930	31
565	64	520	-618	31
563	11	458	-1447	31
225	-160	-172	-1763	31
214	-207	-1155	-1656	31
141	-173	-1306	-426	31
103	-126	-545	863	31
388	104	1345	1978	31
257	124	2097	1090	31
-171	-110	1626	-1951	31
-803	-185	867	-2111	31
-869	-162	230	342	31
-294	73	117	2218	31
610	159	-117	1384	31
971	15	52	-459	31
617	-107	127	130	31
314	-146	210	1100	31
71	-89	-113	513	31
102	-127	-343	-685	31
-446	-65	-846	-1757	31
-1041	15	-693	-2241	31
-1052	59	892	-2677	31
-696	75	787	-1584	31
2	45	-507	-22	31
392	155	-909	690	31
506	118	-597	938	31
6	45	-435	1429	31
-888	-12	-999	865	31
-750	-29	-1523	-620	31
255	58	-364	465	31
1041	-77	1075	513	31
1254	-132	877	1026	31
819	-157	310	1958	31
621	-199	216	-525	31
413	-42	706	-1632	31
-124	77	578	-914	31
-176	191	21	-538	31
-261	152	-129	-1445	31
-307	-77	-285	-1930	31
-164	-229	144	-269	31
-175	-264	267	-1310	31
-154	-163	-155	-1254	31
-167	-37	205	4000	31
-267	62	646	4000	31
-357	211	-76	1858	31
-360	262	-1020	-3419	31
-166	156	-1200	-4000	31
19	62	-518	-1805	31
-34	19	-127	-798	31
-42	-19	-6	451	31
-11	1	304	1734	31
-75	76	465	-104	31
-161	50	493	-956	31
4	-59	154	-408	31
240	-165	252	-848	31
-16	-209	576	-1188	31
-34	-214	458	-1516	31
76	-212	260	-2096	31
69	-30	375	-1193	31
5	142	-639	2152	31
-293	181	-1399	4000	31
-281	306	-117	3672	31
-238	275	236	1504	31
-176	235	202	101	31
-40	370	34	-1550	31
281	265	-120	525	31
210	148	36	1546	31
-428	81	-223	417	31
-309	-145	69	513	31
43	-403	113	-212	31
32	-398	246	-163	31
9	-59	250	-94	31
234	172	-280	51	31
327	353	-483	-155	31
82	272	276	-698	31
66	146	896	-1839	31
108	193	621	-3855	31
22	-64	403	-3713	31
-124	-311	320	-589	31
-191	-548	436	3645	31
-141	-490	234	4000	31
159	-152	284	4000	31
458	-66	233	991	31
426	12	-432	-26	31
413	55	-1466	999	31
102	33	-2181	-130	31
-260	9	-1175	-616	31
57	-17	-378	-773	31
337	1	-66	-656	31
144	-1	311	-770	31
101	-38	457	-647	31
114	-112	941	124	31
-72	-164	813	-780	31
-191	-177	455	-2521	31
-327	-205	472	-3328	31
-282	-128	472	-696	31
-191	-10	190	2998	31
-339	33	-180	2534	31
-110	144	-870	50	31
136	142	-1205	833	31
-280	136	-838	1285	31
-322	234	-294	-826	31
90	226	719	-1560	31
-605	187	814	-845	31
-1048	121	442	341	31
-450	220	242	1196	31
-754	239	-260	462	31
-736	65	-519	-1078	31
306	-4	-369	-1405	31
1678	-131	59	-259	31
2302	-163	728	2001	31
1691	-94	889	4000	31
1575	-44	-187	2805	31
868	104	-820	-1416	31
192	251	-477	-729	31
74	265	-190	-445	31
-178	189	46	-1372	31
-88	77	396	-1545	31
-329	-129	536	-3015	31
-307	-332	500	-4000	31
-384	-372	1295	-3574	31
-456	-266	1322	453	31
-317	-135	-134	4000	31
-374	-42	-1080	4000	31
-348	-17	-1400	2750	31
-292	-14	-1023	-266	31
125	28	-747	-1329	31
-61	11	-403	-1300	31
-598	-107	-13	-1779	31
-299	-142	-2	-1460	31
-162	29	239	-1296	31
-144	175	317	-1148	31
-4	291	387	-843	31
-7	444	254	-380	31
43	355	110	33	31
64	54	254	-608	31
182	-62	1040	-221	31
-41	59	1762	118	31
-343	100	919	262	31
-172	-4	-681	483	31
-47	-62	-1584	501	31
-11	-26	-1090	711	31
15	-56	-520	597	31
-76	-114	-603	480	31
-239	-91	-152	-116	31
-269	-66	157	-345	31
-542	-116	60	-61	31
-945	-159	141	-117	31
-411	-111	204	-124	31
407	-51	305	57	31
1029	-41	59	55	31
1044	-42	-189	-9	31
503	3	262	42	31
278	28	615	-141	31
87	-5	500	-538	31
201	-31	482	-352	31
117	-50	424	449	31
-233	-95	279	976	31
-184	-101	-196	1505	31
-353	-71	-1045	577	31
-696	-78	-1652	-56	31
-450	-69	-1139	1062	31
-34	21	146	159	31
-107	109	216	-855	31
-182	113	551	-1731	31
-91	119	1606	-2724	31
356	91	1378	-1472	31
538	60	73	1850	31
45	99	-1154	4000	31
-197	112	-739	2911	31
-583	214	-165	753	31
-612	190	-174	-337	31
468	-20	-49	-374	31
1180	-137	-249	-1301	31
737	-207	-165	-2915	31
-36	-181	-116	-2218	31
-800	-89	309	39	31
-533	-11	967	1222	31
879	114	680	1406	31
1416	209	-115	1637	31
951	85	-703	1246	31
362	97	-867	1011	31
82	322	-525	-356	31
-137	315	-245	-1204	31
-312	195	77	-1358	31
-325	46	438	-1442	31
-209	-137	381	-240	31
-304	-379	469	738	31
-981	-546	4	989	31
-1091	-511	-477	-82	31
-604	-269	-245	-548	31
135	-8	-210	-605	31
837	117	613	-1389	31
736	197	1287	-760	31
342	150	1110	948	31
36	193	926	2075	31
-122	139	-483	2405	31
-132	34	-1423	681	31
7	77	-1205	-1705	31
334	-9	-701	-880	31
299	15	-375	-534	31
22	10	-275	-1351	31
-67	-86	112	-873	31
-19	-168	21	-627	31
-82	-455	21	-249	31
-178	-492	52	-193	31
19	-26	173	-590	31
-56	385	260	-1256	31
-196	387	754	-1807	31
-91	207	1641	-846	31
-320	185	906	1089	31
-454	168	-362	3033	31
-368	-14	-656	2167	31
-249	-107	-234	-186	31
-86	-24	-225	438	31
-285	-13	-352	855	31
-469	-64	-189	777	31
-370	27	-432	997	31
-491	39	-327	-221	31
34	15	-114	-436	31
640	62	6	-234	31
312	122	25	-67	31
240	246	-27	-41	31
228	134	-14	-573	31
368	-79	21	-1354	31
347	-132	265	-2384	31
202	-174	233	-2227	31
199	-39	-141	-300	31
-347	149	-204	1377	31
-264	106	62	2747	31
177	6	-172	4000	31
324	-61	-79	2283	31
475	-123	482	27	31
366	-187	729	-18	31
209	-202	462	-791	31
183	-169	-172	-810	31
391	-196	-10	-825	31
382	-196	36	-1038	31
-166	19	-164	-1139	31
-492	355	-185	-976	31
-920	428	-267	-651	31
-1497	255	-398	-433	31
-945	164	-450	123	31
-287	157	200	-629	31
254	102	455	-955	31
1001	11	151	880	31
723	-42	294	1273	31
665	-162	141	19	31
560	-230	-506	-338	31
185	-129	-553	-215	31
122	-87	-249	-48	31
-868	-119	13	-139	31
-1502	-126	176	-216	31
-1598	-137	153	-303	31
-982	-105	-152	-287	31
321	-56	-180	417	31
1410	-37	1047	350	31
1899	70	1958	-966	31
1604	178	1132	-3481	31
1347	155	-72	-1683	31
257	137	-545	3305	31
-164	159	-1055	4000	31
17	196	-1461	4000	31
-164	244	-1065	515	31
-35	87	-837	-1495	31
-106	-108	-555	-910	31
-31	-135	-28	-871	31
-52	-125	-60	-500	31
27	-72	12	-1202	31
-7	-59	352	-697	31
-194	-54	746	-1026	31
-269	-118	764	-1144	31
-456	-227	-232	-787	31
-332	-191	-1090	-1348	31
-154	-161	-1086	-1780	31
-109	-89	56	-307	31
62	62	1757	2361	31
279	139	2081	1331	31
72	155	1720	180	31
-93	215	774	1056	31
-58	195	-812	-349	31
-415	155	-1611	-833	31
-462	136	-1164	951	31
-231	54	-275	715	31
-207	174	-82	-12	31
-311	174	86	68	31
-312	36	52	502	31
255	2	30	868	31
347	-85	170	436	31
6	-72	164	49	31
114	-113	334	-379	31
37	-180	383	-393	31
1	-168	337	-249	31
-17	-170	39	-192	31
-24	-126	-46	60	31
64	-18	-184	-276	31
-64	137	-183	493	31
-97	117	47	1142	31
-40	-21	56	13	31
15	-42	126	-754	31
42	-24	-61	-851	31
34	94	-343	-648	31
23	293	-736	-1053	31
-1	219	-946	-1351	31
-61	-12	268	-231	31
-106	-208	2027	1458	31
-60	-415	1484	2697	31
-167	-497	-146	3755	31
-340	-574	-794	2689	31
-592	-313	-1163	-1229	31
-1272	281	-1215	-1770	31
-1755	515	-598	-1058	31
-1444	458	-182	-1563	31
-675	27	-524	-1289	31
340	-396	-255	-2051	31
1079	-181	423	-2330	31
1530	44	496	-1780	31
1811	147	299	-652	31
914	100	480	1580	31
-542	74	468	2109	31
-1162	341	-16	553	31
-338	328	-9	935	31
893	252	-94	1048	31
1436	235	-726	344	31
1576	165	-683	366	31
1198	99	1029	1688	31
1249	3	2065	3329	31
950	-67	756	1155	31
472	-143	-808	260	31
505	-71	-879	618	31
147	0	-166	-912	31
-35	-27	-365	-1396	31
-307	-86	-352	-1081	31
-303	-119	-91	-992	31
-314	-107	-22	-1124	31
-402	-50	315	-890	31
-341	51	362	-807	31
-457	74	137	-799	31
-395	122	112	-517	31
-433	18	146	-619	31
-390	-146	14	-647	31
-447	-119	-208	219	31
-393	-59	-542	1980	31
-222	-44	17	2526	31
-263	-108	1055	548	31
-187	-101	1062	-1923	31
-210	-84	490	-3474	31
-195	-208	-295	-2773	31
-193	-253	-798	-763	31
-242	-173	-644	121	31
-175	-104	-565	1884	31
-86	10	-653	2178	31
49	108	-659	1188	31
28	122	-85	2335	31
-82	249	311	863	31
-253	379	-33	-490	31
-427	334	-167	-166	31
-190	199	112	-560	31
103	106	205	-527	31
14	6	277	-940	31
-232	-170	733	-680	31
-386	-312	1142	-539	31
-397	-283	1298	-299	31
39	-54	511	-450	31
677	81	-1809	-999	31
710	58	-3485	-1027	31
585	-1	-1815	-203	31
635	-21	1163	1796	31
356	96	1983	1938	31
-269	96	1089	1434	31
-423	71	646	1774	31
-99	150	806	1266	31
-174	126	503	1826	31
-377	81	43	1480	31
-267	4	-447	-1033	31
-18	-77	-598	-1341	31
-59	-142	-226	-602	31
-103	-119	-152	-896	31
-4	17	-3	-1635	31
344	33	233	-1855	31
763	34	503	-2187	31
610	-3	802	-1965	31
471	-77	400	-57	31
200	-78	-606	1630	31
19	-119	-1091	1297	31
118	-44	-165	-1326	31
-14	240	452	-821	31
-197	510	-219	3328	31
-423	515	-719	4000	31
-332	64	-1082	2352	31
-211	-573	-842	429	31
-181	-724	-139	-1037	31
-156	-312	183	-989	31
-405	202	447	-992	31
-230	280	309	-954	31
106	-20	132	-1419	31
-126	-104	-405	-3038	31
-466	-57	-978	-3363	31
-357	-45	52	-741	31
254	-11	1261	2642	31
890	32	1087	3373	31
1014	102	423	2575	31
679	94	-102	1788	31
-54	109	-473	158	31
-465	143	-86	-1548	31
-26	91	616	-1572	31
69	40	175	-602	31
50	56	-729	-375	31
116	65	-761	-501	31
87	-8	364	-605	31
295	-50	249	-1517	31
271	-86	-523	-409	31
192	-106	-295	2005	31
9	-90	-122	1329	31
-338	-63	615	111	31
-876	-69	385	-117	31
-936	-191	37	6	31
-41	-230	187	-838	31
711	-148	-8	-2006	31
723	-79	313	-913	31
195	12	229	-31	31
-368	87	225	109	31
-1096	195	337	-495	31
-1304	372	376	-665	31
-462	320	347	-254	31
528	115	44	995	31
1301	19	-378	2095	31
482	-150	-901	-129	31
-295	-330	-264	-204	31
303	-326	905	1609	31
235	-192	925	1492	31
257	-9	170	722	31
166	317	-551	-84	31
-108	553	-1336	43	31
-366	293	-1446	1381	31
-942	-22	-649	1660	31
-974	-24	-225	-540	31
-818	5	-29	-1634	31
56	-107	10	-776	31
808	-108	124	-141	31
875	253	282	-73	31
1085	422	257	12	31
545	127	391	-392	31
-51	-66	586	-1139	31
-97	-212	645	-1442	31
-203	-401	112	-923	31
51	-420	-243	715	31
628	-129	24	1497	31
215	341	422	570	31
-275	369	138	-771	31
94	224	-403	-1437	31
226	96	-117	-1347	31
274	-50	46	-269	31
267	-26	-111	941	31
179	-92	34	1612	31
14	-86	257	2056	31
-310	-99	480	1363	31
-306	-129	372	-242	31
-27	-59	-43	-601	31
-161	-131	-366	-115	31
-546	-88	-539	-968	31
-374	17	-334	-928	31
-182	14	-137	-562	31
-15	-29	61	-704	31
13	-31	285	-162	31
-267	-25	248	-99	31
-145	-120	169	265	31
141	-127	-8	-520	31
259	-134	157	-1639	31
198	-135	576	-1698	31
-24	-130	451	-1141	31
-330	-132	-29	844	31
-231	-22	-438	1800	31
-73	21	-608	3421	31
-158	82	-732	4000	31
-18	85	-886	1900	31
-16	27	-778	-49	31
-130	92	-495	299	31
-147	116	452	-857	31
-370	129	1138	-1071	31
-667	184	412	-1387	31
-485	344	-251	-1806	31
-157	325	-636	-2700	31
225	24	-237	-3144	31
864	-76	1250	-2734	31
931	-66	1569	-1773	31
570	-32	840	41	31
304	-10	80	2872	31
210	52	-909	4000	31
220	197	-1185	2349	31
-266	-50	-952	1251	31
-489	-257	-628	1326	31
34	-159	-152	-17	31
112	-109	282	1711	31
-565	-42	480	1067	31
-1338	-216	53	48	31
-676	-14	-646	-1164	31
237	382	-628	-1625	31
-74	332	284	-1241	31
315	312	136	-1437	31
448	127	-470	-972	31
586	-79	-464	-898	31
1144	-190	40	-339	31
619	-207	1254	-299	31
398	-196	1471	-294	31
32	-214	847	-203	31
-542	-117	375	-71	31
-591	-111	549	142	31
-132	-106	584	-342	31
611	-154	67	-758	31
185	-212	93	-134	31
-157	-132	-330	1134	31
440	75	-600	-418	31
604	348	22	-3303	31
99	536	395	-2900	31
-488	507	401	-187	31
-501	371	-65	2577	31
-74	238	-891	2885	31
68	26	-1423	830	31
-159	-46	-974	974	31
-269	-166	-34	2758	31
-46	-222	160	2444	31
47	-156	156	964	31
-186	-190	81	-331	31
-146	-126	-121	-1119	31
-63	-185	-204	-873	31
-107	-207	-250	-630	31
-9	-102	-9	-569	31
23	217	19	-552	31
79	574	72	-49	31
-1	320	185	11	31
-483	14	204	-241	31
-859	-184	-199	-403	31
-961	-406	-969	-1495	31
-821	-410	-387	-2016	31
39	-224	851	-1900	31
995	74	908	-1247	31
744	4	641	337	31
-433	39	734	2732	31
-882	201	401	2552	31
-768	91	-423	-50	31
