File Name: not saved
Channel 1: 'EMG 1', 10841 values, raw ADC, no filters.
Channel 2: 'EMG 2', 10841 values, raw ADC, no filters.
Channel 3: 'EMG 3', 10841 values, raw ADC, no filters.
Channel 4: 'EMG 4', 10841 values, raw ADC, no filters.
Digitals combined (event=16, d=8, c=4, b=2, a=1): 10841 values, .

10	-39	-32	-15	31
206	-247	-215	-26	31
129	-250	-124	-34	31
59	-82	247	-72	31
63	-12	275	-50	31
39	32	59	-73	31
104	54	-46	-109	31
68	74	-185	-136	31
-67	96	-250	-139	31
-46	49	-55	-23	31
46	59	84	111	31
101	55	179	118	31
-91	52	215	119	31
-14	51	195	148	31
-37	-64	6	167	31
-214	-46	-76	158	31
19	134	147	171	31
31	128	73	130	31
-33	-11	-29	-86	31
38	-79	-84	-144	31
29	160	-213	-122	31
-31	423	-119	-197	31
75	242	-117	-182	31
52	57	-236	76	31
-139	-55	-76	190	31
-32	-305	111	149	31
117	-278	340	217	31
-81	-24	493	-52	31
-192	-105	381	-191	31
12	-193	214	-140	31
36	143	20	-195	31
16	468	-183	-106	31
46	544	-580	50	31
10	327	-638	137	31
22	100	-304	-101	31
-11	-29	-158	70	31
-5	-272	204	156	31
37	-471	485	-169	31
36	-652	244	-76	31
79	-463	142	-21	31
81	-190	34	158	31
36	-73	-83	315	31
52	201	-61	202	31
-25	265	-94	60	31
-76	284	82	-49	31
26	49	241	-102	31
-24	-140	222	-107	31
-122	-149	179	-30	31
-93	-298	108	-32	31
-30	-63	-42	-49	31
-51	96	-270	-61	31
39	22	-393	-1	31
161	27	-269	4	31
71	40	-82	-36	31
77	51	-84	-26	31
89	56	-92	-39	31
48	71	-25	21	31
37	61	-25	101	31
6	69	-22	132	31
-11	61	-24	24	31
-94	56	-12	-96	31
-112	44	27	-90	31
-55	44	51	-27	31
-41	59	129	-51	31
-16	31	260	-36	31
-39	35	287	23	31
-74	14	180	-18	31
-35	-1	62	16	31
-2	11	-51	46	31
17	9	-151	73	31
-24	38	-192	86	31
-4	38	-228	51	31
97	34	-301	46	31
19	67	-380	51	31
-17	66	-240	20	31
20	31	191	-16	31
-32	34	571	5	31
-42	27	911	-4	31
-35	-46	783	-16	31
-44	-94	69	4	31
-38	-78	-184	-14	31
-29	-32	-282	-46	31
-31	22	-423	19	31
-14	16	-109	98	31
61	-35	32	87	31
61	-26	132	-79	31
26	6	232	-150	31
57	-10	94	-22	31
42	-26	-60	3	31
-10	-14	-78	56	31
-107	-23	-12	71	31
-56	-28	-10	-29	31
42	17	-24	-77	31
14	15	-216	-76	31
101	-47	-202	-97	31
50	36	-309	-110	31
-71	453	-418	-18	31
-37	790	-53	181	31
-61	576	113	346	31
-1	-5	65	297	31
91	-528	53	132	31
8	-771	208	52	31
44	-854	360	-79	31
142	-480	123	-355	31
225	142	-284	-488	31
31	538	-431	-255	31
-160	675	-169	155	31
34	357	16	412	31
60	46	76	434	31
-27	-139	222	334	31
-57	-229	44	47	31
-3	-245	21	-372	31
22	-353	161	-640	31
-74	-383	192	-515	31
-62	-385	319	-104	31
-48	-320	372	81	31
-54	-260	353	230	31
77	-114	183	-42	31
159	260	-190	-2	31
-20	536	-693	748	31
-43	320	-804	467	31
158	155	-553	142	31
27	586	-235	109	31
-16	435	-20	-202	31
-7	-96	-24	-248	31
-39	-75	3	-156	31
26	-49	102	-69	31
-36	-182	183	-235	31
11	-137	355	-204	31
-16	92	587	22	31
-106	-190	462	189	31
-102	-392	145	139	31
-49	-259	-192	-39	31
-111	-297	-366	30	31
-82	-112	-132	-15	31
6	-87	95	12	31
159	-51	207	129	31
50	64	136	130	31
-94	-19	-31	21	31
148	29	20	-106	31
16	41	274	-132	31
56	167	521	-84	31
54	402	545	-54	31
-15	372	397	-56	31
49	142	6	86	31
-224	-19	-590	147	31
-272	-157	-821	86	31
-41	-220	-531	-14	31
-6	23	-189	-77	31
12	165	-79	16	31
92	122	-92	68	31
27	145	-137	104	31
116	54	-207	174	31
-62	41	-97	81	31
-94	378	-44	6	31
182	1111	-179	67	31
118	2160	-215	39	31
94	2268	-49	-36	31
-111	993	441	-56	31
-135	-211	733	-16	31
108	-1192	308	26	31
245	-1865	-114	-11	31
83	-1713	-32	-36	31
-214	-1579	180	-34	31
-33	-1559	319	-159	31
-30	-1304	282	-259	31
-147	-845	93	-134	31
-17	69	-284	-29	31
13	905	-295	-159	31
6	1045	77	-106	31
6	841	-88	302	31
1	624	-127	294	31
54	-53	95	76	31
213	-895	-21	-11	31
-28	-421	-216	-113	31
-307	1497	-98	-129	31
82	3391	40	-206	31
-146	2558	46	-169	31
-99	-219	141	-96	31
299	-1539	-11	25	31
73	-2821	264	46	31
17	-3530	678	81	31
-196	-1979	544	385	31
50	-144	633	332	31
69	696	517	642	31
-312	421	-252	1172	31
-128	62	-871	119	31
124	-2	-1131	-832	31
114	-320	-1149	-407	31
89	-425	-854	-485	31
260	111	-414	-561	31
104	561	12	-357	31
73	347	181	-393	31
182	285	343	-161	31
-41	278	491	44	31
-122	-184	420	253	31
-41	-209	219	330	31
-36	-46	20	21	31
129	-72	29	-168	31
69	164	7	-127	31
-267	349	-227	-198	31
22	273	-380	154	31
71	261	32	602	31
-116	285	563	426	31
77	298	644	175	31
-34	465	411	73	31
119	522	52	101	31
141	380	-274	201	31
-62	275	-398	254	31
124	165	-62	144	31
31	-43	95	-9	31
-111	-170	-162	-42	31
-42	-60	6	-120	31
69	95	195	-175	31
31	83	97	-130	31
-53	69	165	-189	31
-146	78	179	-396	31
-244	16	22	-442	31
269	19	104	-79	31
333	583	262	219	31
-182	1603	-19	324	31
-100	1048	-146	377	31
-17	-633	-56	143	31
16	-1106	-332	0	31
37	-1117	-288	-46	31
-67	-997	24	-66	31
-50	-328	122	-218	31
-40	599	172	-355	31
14	894	-56	-25	31
-38	461	-556	239	31
-159	769	-568	154	31
-97	1149	-211	-19	31
-89	426	-46	-111	31
-76	-418	263	-156	31
-37	-506	204	-72	31
-56	-496	36	-72	31
131	-304	295	-31	31
145	-318	284	78	31
104	-1056	576	-52	31
95	-1790	931	-80	31
82	-1905	297	-87	31
235	-962	-255	-31	31
54	-200	-235	32	31
-249	115	-609	129	31
-66	280	-532	206	31
-39	194	-45	73	31
-111	288	52	-1	31
106	275	205	-49	31
4	490	322	-62	31
75	699	302	-63	31
-58	443	-32	92	31
-329	395	-282	141	31
-139	1131	-463	138	31
250	2352	-611	304	31
523	2782	-400	149	31
-270	1779	50	4	31
-170	1575	546	-82	31
312	875	478	-273	31
-192	-1906	212	-335	31
228	-2655	-139	233	31
98	-2905	-664	945	31
-162	-3464	-728	395	31
152	-2628	-351	-301	31
-48	-1912	187	-199	31
-83	-794	306	-349	31
-2	128	235	-805	31
26	664	267	-565	31
-4	924	104	66	31
2	587	45	176	31
-42	297	8	159	31
24	-175	12	103	31
161	-221	108	151	31
37	14	162	152	31
-41	142	238	84	31
31	373	315	125	31
1	377	274	-11	31
51	431	290	-58	31
-137	451	355	30	31
-505	426	158	152	31
146	518	-145	56	31
319	476	-328	-37	31
-49	430	-352	-57	31
1	374	-474	-141	31
-212	345	-537	-154	31
7	408	-558	-156	31
-92	372	-511	-81	31
-11	259	-202	-11	31
90	273	-81	339	31
-36	307	52	487	31
307	189	208	-236	31
-10	42	405	-497	31
-50	23	621	41	31
25	293	535	184	31
116	380	386	16	31
47	174	315	-28	31
-280	69	217	207	31
-56	539	322	271	31
81	1028	371	129	31
192	193	129	117	31
-347	-251	-47	-116	31
-297	-264	-443	-488	31
279	-1204	-443	-447	31
-1	-1653	-165	-197	31
-124	-1846	522	59	31
-324	-1780	1407	412	31
-1	-709	1190	247	31
353	395	715	-5	31
116	662	147	171	31
-55	452	-432	416	31
-152	358	-1207	526	31
8	252	-1888	221	31
114	850	-1603	-341	31
32	2024	-1248	-670	31
-46	2242	-1130	-539	31
-119	1101	-380	-177	31
-287	-448	1094	178	31
-105	-1230	1475	410	31
208	-1248	821	202	31
-31	-1057	545	-97	31
-156	-1108	-144	-238	31
190	-984	-1020	-44	31
252	-491	-1207	399	31
248	-47	-980	-27	31
245	767	-246	-410	31
-16	1289	332	12	31
-91	1173	342	-119	31
-205	657	417	-350	31
57	-490	443	-51	31
-28	-1527	442	262	31
-569	-1332	546	324	31
-397	77	332	21	31
-349	274	127	-534	31
255	-439	92	-360	31
419	-171	-66	174	31
-316	407	-207	-221	31
49	1013	-238	212	31
269	1000	-292	941	31
432	667	-448	267	31
338	-210	-265	182	31
37	-1300	142	347	31
295	-1206	473	-16	31
-16	-194	532	-16	31
32	1299	426	23	31
163	868	261	358	31
-151	-222	29	71	31
-185	303	-115	-66	31
-89	-396	-339	31	31
-11	-1648	-247	-620	31
10	-1643	19	-663	31
-51	-1196	234	-220	31
63	-738	485	-20	31
429	-464	721	-211	31
379	175	599	-274	31
-64	516	251	-198	31
-252	435	242	358	31
-132	693	-71	758	31
41	964	-534	277	31
-166	1592	-703	-119	31
-189	1680	-693	-46	31
254	778	-679	-81	31
-51	-116	-511	-97	31
-324	-675	82	293	31
-63	-675	350	179	31
335	-187	260	94	31
86	361	-54	-191	31
-565	564	-253	-477	31
-14	426	215	-468	31
430	-117	724	-365	31
403	-578	430	140	31
63	-653	-221	248	31
-151	-347	-512	221	31
-41	382	-517	67	31
-208	887	335	-268	31
-25	1291	1256	-189	31
-288	867	1218	135	31
-153	-501	749	-82	31
374	-1643	-241	-425	31
-34	-2342	-1187	-76	31
-561	-1947	-788	281	31
-794	-1142	119	-16	31
2	-285	-172	51	31
590	330	-881	262	31
132	339	-767	167	31
94	591	-548	452	31
-31	470	-350	308	31
13	435	236	210	31
370	571	540	216	31
505	535	428	288	31
388	621	500	-62	31
-71	499	364	-526	31
-129	569	39	169	31
-47	516	-24	76	31
-91	383	146	-616	31
118	431	143	-138	31
64	396	-126	427	31
-224	127	-483	31	31
-234	-246	-1176	-96	31
-317	-398	-1203	-121	31
-278	-499	-351	-78	31
-269	-187	246	371	31
-197	164	503	164	31
260	87	671	-18	31
158	67	648	86	31
-85	165	238	26	31
-121	335	109	188	31
-210	461	388	260	31
-222	297	643	197	31
-475	-39	674	116	31
-639	-360	179	-254	31
-591	-629	-289	-244	31
255	-608	-491	70	31
995	-422	-307	-250	31
852	-251	205	-606	31
1127	0	467	-538	31
1083	187	212	-579	31
745	200	-319	-214	31
315	79	-545	424	31
182	46	-287	666	31
49	246	36	735	31
-246	287	99	244	31
-76	-86	325	-124	31
-402	-325	368	91	31
-409	-323	187	-10	31
-319	-370	342	-51	31
-417	-191	245	-12	31
-616	-167	-322	-72	31
-398	-378	-613	-194	31
-54	-230	-766	-316	31
-527	121	-663	-298	31
-264	259	-104	-184	31
438	133	167	110	31
314	76	450	412	31
-393	112	566	391	31
-397	242	116	165	31
302	396	-430	-129	31
939	373	-705	-227	31
643	252	-565	-108	31
110	57	47	-221	31
542	236	323	-364	31
554	693	271	-491	31
249	952	494	-362	31
16	1198	267	-170	31
169	669	144	-47	31
212	-411	231	286	31
-122	-1070	402	790	31
32	-1446	666	1024	31
-165	-926	126	532	31
-425	-204	-553	-363	31
-598	-123	-622	-603	31
-696	-426	-242	5	31
-335	-1033	82	203	31
-260	-896	310	-164	31
-407	-308	598	-533	31
-415	-126	709	-638	31
-45	-9	741	-177	31
-77	61	640	339	31
-532	99	521	603	31
-66	144	38	725	31
417	137	-771	402	31
552	131	-1198	-158	31
285	325	-1085	-110	31
-108	468	-797	33	31
55	250	-1034	-185	31
-206	183	-974	66	31
-347	312	-211	-381	31
-23	180	-120	-466	31
81	6	-321	203	31
198	203	-36	-51	31
236	127	258	9	31
7	-101	565	75	31
-51	33	910	158	31
216	19	975	237	31
334	32	632	-137	31
215	38	267	-112	31
125	-25	-274	-145	31
-54	-88	-556	-99	31
-425	-174	34	36	31
-116	-147	426	-64	31
214	-171	325	203	31
-648	-60	199	329	31
-344	-29	-182	29	31
87	-179	-555	-74	31
-442	26	-40	761	31
-117	498	542	715	31
130	568	118	-611	31
630	99	-568	-913	31
240	-192	-966	-414	31
-530	-263	-1188	214	31
-138	-102	-548	161	31
82	576	616	172	31
247	977	1213	326	31
331	748	934	-115	31
507	537	338	-38	31
467	421	188	-37	31
-7	415	-87	-74	31
-137	415	-270	245	31
-67	-210	-179	189	31
-312	-851	-109	-48	31
-212	-1452	-37	-241	31
-184	-2056	-106	-431	31
-222	-1653	-51	-500	31
269	-717	-29	-172	31
387	-245	-148	-52	31
292	-311	-279	-192	31
-370	-87	21	182	31
-340	393	565	583	31
130	717	1138	360	31
-636	712	1719	-70	31
-819	667	1182	-328	31
-221	1020	-94	-493	31
-23	817	-1148	-138	31
360	164	-1619	400	31
788	-138	-1410	210	31
276	-169	-1001	-31	31
289	-36	-506	315	31
471	451	-267	760	31
112	1049	-247	892	31
365	1483	-76	376	31
893	1391	147	-139	31
835	-47	223	-227	31
-433	-1416	284	-459	31
-770	-1705	510	-344	31
-315	-1823	432	-37	31
-1	-1253	237	-219	31
563	-245	-1	-513	31
-715	228	-224	-783	31
-1794	278	152	-831	31
-1480	44	763	-505	31
-513	-148	1418	239	31
695	-225	1516	746	31
447	-238	716	461	31
-195	-234	-24	16	31
-1205	-71	-608	-89	31
-1909	129	-1139	362	31
-1886	49	-1000	1299	31
-14	225	-191	1103	31
2509	387	101	-89	31
2116	127	-466	-462	31
1758	-194	-560	-706	31
895	-392	-185	-716	31
779	-64	94	-222	31
2042	625	769	16	31
776	845	1020	88	31
-172	752	129	260	31
-374	710	-455	-73	31
-301	589	-690	-282	31
183	574	-1026	178	31
293	385	-590	538	31
431	-162	-302	444	31
168	-454	-544	-137	31
-87	-275	-29	-362	31
-206	-268	807	-200	31
-74	-694	1012	-2	31
-367	-780	987	39	31
-380	-422	468	-137	31
-81	-86	-709	7	31
-164	29	-1300	284	31
4	107	-586	209	31
-387	208	631	-159	31
-716	114	897	-550	31
-552	25	767	-928	31
-715	-111	914	-938	31
-908	-23	245	-457	31
62	137	2	6	31
921	169	530	332	31
-237	34	245	847	31
-1593	-426	-365	700	31
-1350	-509	-1144	248	31
-101	-213	-1697	733	31
656	401	-1631	794	31
280	968	-723	507	31
-147	1024	512	97	31
-247	822	443	-274	31
-689	258	269	9	31
-54	-475	485	-12	31
1843	-821	237	-26	31
1766	-506	-124	85	31
1047	-342	-601	-81	31
896	-313	-912	-249	31
-692	143	-856	-201	31
-1365	172	-568	-7	31
-1875	14	161	3	31
-2169	66	1009	-456	31
-1310	110	1682	-728	31
-144	190	1987	-281	31
1546	-83	1777	424	31
959	-215	843	859	31
112	159	-363	420	31
-951	168	-1320	-438	31
-603	-104	-1630	-783	31
2074	-109	-818	-607	31
1648	-92	-124	-222	31
933	52	297	94	31
360	247	946	290	31
17	151	1090	352	31
732	-230	187	137	31
270	-525	-723	277	31
299	-544	-985	516	31
397	-512	-982	387	31
-257	-167	-556	-313	31
-808	304	-225	-441	31
-567	344	59	113	31
-20	52	71	-317	31
413	-106	180	-283	31
580	131	406	-277	31
-13	312	310	-258	31
-202	183	475	-262	31
-126	-9	513	-139	31
243	-182	648	867	31
628	-160	530	587	31
-92	-84	-34	186	31
-267	99	-219	289	31
591	323	-62	29	31
412	232	139	137	31
-161	204	300	342	31
324	231	262	-181	31
-164	92	152	-475	31
-1117	-249	225	-187	31
-1280	-341	-8	-347	31
-1556	-479	-316	-496	31
-1292	-852	-626	-434	31
-495	-576	-1033	179	31
-87	107	-594	548	31
476	578	-58	136	31
813	599	-22	-181	31
304	553	189	-340	31
-257	571	473	-109	31
-1186	737	882	242	31
-498	624	648	248	31
690	-279	106	-53	31
794	-822	-784	-340	31
1614	-720	-1644	48	31
1041	-488	-393	181	31
1250	-85	1015	-11	31
954	131	1235	167	31
-1320	104	1189	27	31
-925	201	591	247	31
-1174	123	-978	502	31
-1828	17	-1972	365	31
-268	-157	-1030	178	31
198	-197	-298	-86	31
517	431	91	-262	31
1238	589	587	-528	31
746	351	91	-492	31
247	190	-577	-176	31
-105	-244	-246	335	31
-94	-338	-121	948	31
392	-90	-127	272	31
330	-22	926	-497	31
207	-85	1107	-237	31
166	79	563	-22	31
99	170	73	381	31
141	35	-296	334	31
-329	-92	-279	109	31
-790	-126	-283	-89	31
-945	-145	-287	-662	31
-608	-421	-419	-101	31
670	-425	-672	118	31
1260	-270	-644	-350	31
1093	73	-10	67	31
673	481	397	-14	31
-806	70	789	23	31
-1568	-94	886	-112	31
-888	14	288	-523	31
20	-95	-175	24	31
412	163	-620	705	31
-194	172	-321	259	31
-130	177	290	-472	31
-78	260	129	-129	31
-533	-39	52	-71	31
307	28	190	-48	31
567	553	327	101	31
-242	829	623	294	31
252	639	773	392	31
963	194	534	527	31
511	-647	175	759	31
91	-1489	-40	-207	31
-374	-1355	59	-801	31
-322	-696	1270	-563	31
-894	-65	1980	-419	31
-2064	420	977	-412	31
-1530	421	-126	-77	31
-523	361	-1724	595	31
-1177	14	-3970	297	31
-1728	-322	-3552	-295	31
1034	157	-1280	-171	31
3242	341	-847	202	31
1570	54	-453	896	31
553	-77	338	587	31
503	-122	556	-560	31
-1	-234	820	-665	31
-596	-195	796	-202	31
-769	143	845	262	31
1168	46	729	328	31
1999	20	613	294	31
1527	154	614	312	31
56	-7	233	69	31
-1964	61	-210	-165	31
-1032	57	-380	-424	31
506	160	-48	-720	31
360	535	304	-328	31
477	685	423	116	31
693	432	615	-11	31
441	47	766	34	31
257	-29	1210	56	31
-390	-180	1559	317	31
-397	-619	585	349	31
39	-676	-1277	212	31
80	-247	-2867	470	31
44	104	-2310	357	31
-131	343	-427	-212	31
-734	368	14	-561	31
-1138	111	388	-452	31
-405	-247	735	-548	31
181	-230	631	137	31
157	285	311	667	31
247	302	115	193	31
535	27	724	-240	31
354	-87	764	-861	31
15	-147	132	-482	31
-226	124	-327	204	31
-97	581	-640	102	31
256	669	-811	-104	31
7	254	-428	217	31
-154	-117	-283	362	31
-318	-654	-231	-104	31
91	-944	186	-52	31
398	-479	501	387	31
37	126	1009	542	31
-563	105	1874	153	31
-624	-376	1975	-239	31
-217	-97	648	-155	31
-1056	215	-586	309	31
-560	4	-2223	250	31
563	-47	-3236	-129	31
-186	-79	-1724	-41	31
-720	-92	251	-21	31
-474	-43	841	-140	31
322	-122	105	-131	31
453	-288	-66	253	31
388	-116	84	12	31
924	195	-257	-438	31
647	262	-212	28	31
-197	232	181	384	31
-1063	94	295	618	31
-706	39	472	565	31
382	41	683	297	31
510	18	398	89	31
-314	17	746	-332	31
-174	-106	1057	-331	31
288	-262	503	-696	31
290	-342	26	-492	31
926	-363	-383	540	31
292	-319	-1023	-142	31
7	-191	-805	-969	31
509	161	-383	-857	31
378	675	-399	-475	31
500	761	-34	22	31
67	432	-111	-228	31
39	238	19	-177	31
-765	102	70	352	31
-1925	59	-286	221	31
-1002	58	-297	469	31
35	47	340	1241	31
786	220	998	954	31
1004	170	647	119	31
-1573	48	209	-279	31
-930	66	-666	-283	31
1905	-92	-1248	-685	31
-578	-139	-503	-718	31
-49	-106	653	83	31
-153	-61	1024	541	31
-2412	38	170	935	31
203	-87	-390	384	31
1725	4	-751	131	31
694	189	-591	618	31
-161	22	7	480	31
488	-149	199	295	31
718	-305	369	-663	31
337	-462	376	-999	31
769	-396	920	-830	31
1301	-27	1433	-473	31
453	311	1434	408	31
-556	287	906	310	31
-675	-47	-279	67	31
-920	-170	-1063	-201	31
-227	36	-1009	139	31
488	-147	-340	212	31
951	-417	-402	-290	31
676	-97	-107	-41	31
-463	302	282	291	31
-2598	210	-934	757	31
-1605	31	-1270	96	31
1706	207	-760	-547	31
28	519	-332	-400	31
-520	380	192	-301	31
-354	-79	563	309	31
109	154	625	-361	31
1508	795	229	-706	31
564	436	-305	-147	31
1049	-294	-706	-103	31
232	-267	-478	242	31
-182	-243	62	71	31
245	-343	620	331	31
467	-466	700	-223	31
677	-501	310	-1091	31
-961	-206	-11	-776	31
-496	-455	-368	-160	31
199	-992	-483	731	31
124	-904	139	320	31
-16	-564	968	601	31
-212	-291	1034	1414	31
306	162	696	459	31
-120	597	-2	86	31
-277	671	-598	355	31
-580	562	236	161	31
-665	366	615	212	31
54	337	-144	294	31
9	416	-397	220	31
-237	254	-1020	-151	31
-630	300	-962	-548	31
-725	277	-132	-500	31
187	6	425	-187	31
754	-51	1566	-22	31
432	21	1570	-82	31
94	129	341	-319	31
-346	10	-528	-380	31
-438	-119	-1494	234	31
72	-72	-1724	576	31
-97	-56	-1107	16	31
-289	-19	-700	-538	31
386	-3	-164	-472	31
651	4	212	-377	31
373	-6	413	-428	31
25	-1	868	-522	31
-198	-12	1315	-355	31
-307	-86	2023	194	31
-457	-173	2471	389	31
9	-334	1653	71	31
478	-495	-199	-310	31
364	-385	-1419	265	31
-501	9	-1127	1018	31
-853	340	-620	1139	31
-161	655	-666	1011	31
-236	714	-1237	616	31
-131	278	-1361	256	31
374	-13	-1014	-180	31
252	-15	-581	-267	31
165	132	32	6	31
-1	6	-156	-365	31
-193	-405	-711	-1157	31
-406	-260	-679	-787	31
-703	85	-244	-416	31
-510	53	-84	-412	31
-298	19	170	271	31
-449	132	628	197	31
-45	17	706	162	31
1110	-167	505	279	31
735	-124	151	22	31
-801	-96	-5	-264	31
119	76	14	-167	31
905	330	145	338	31
312	222	585	68	31
517	-55	902	90	31
367	-133	1122	-115	31
971	-123	1494	-612	31
740	167	1245	-284	31
-558	594	743	-7	31
-315	455	-429	151	31
-42	310	-1599	126	31
122	-159	-851	732	31
488	-852	-371	1787	31
107	-1123	-704	1588	31
-665	-1492	-287	357	31
-778	-1052	-363	-1051	31
-823	-88	-468	-1527	31
-801	339	-417	-1365	31
363	497	-615	-725	31
768	703	-129	-27	31
-142	877	-167	-274	31
71	726	-171	-89	31
540	406	12	205	31
-226	-114	128	541	31
-725	-323	595	560	31
-122	111	601	349	31
447	56	448	69	31
235	-177	528	-30	31
503	-113	573	231	31
654	-244	228	-57	31
392	-121	-162	48	31
483	-24	-329	-10	31
558	-182	-364	-243	31
454	-411	-106	-314	31
-82	-444	374	-124	31
-67	-152	711	38	31
-150	12	578	-525	31
-402	238	531	-557	31
-327	345	294	375	31
-893	311	-338	1103	31
-1178	313	-373	400	31
-571	234	-264	-475	31
354	301	-99	-163	31
411	338	278	637	31
156	238	91	927	31
388	54	-37	387	31
292	-62	66	123	31
2	-35	-172	-270	31
-61	71	-413	-658	31
17	186	-761	-64	31
41	154	-1417	-85	31
82	148	-1183	-515	31
118	-71	-286	-387	31
203	-406	32	-550	31
297	-373	206	-46	31
-418	-336	143	333	31
-740	-343	170	72	31
36	-140	310	319	31
-321	39	561	98	31
-845	91	1113	-212	31
-766	119	1221	-73	31
-104	157	937	500	31
642	776	360	566	31
209	1751	-560	69	31
287	1579	-1313	-424	31
397	745	-1146	-1082	31
7	-123	-1099	-125	31
-9	-1618	-793	379	31
385	-2556	48	-49	31
264	-1818	189	319	31
34	-563	459	141	31
214	-165	719	114	31
-35	37	691	-42	31
-56	196	573	-91	31
7	-2	338	117	31
23	177	325	148	31
-29	548	373	354	31
-197	549	214	240	31
-130	184	-96	216	31
-45	184	-148	307	31
9	303	-20	480	31
17	468	-162	-148	31
116	720	-470	-1036	31
97	1166	-448	-655	31
-11	1904	-406	-340	31
107	465	-341	-124	31
181	-2012	44	334	31
24	-2780	437	-451	31
-152	-2141	370	-1302	31
-41	-885	-161	-336	31
49	-255	-259	627	31
-205	16	-345	474	31
-495	262	8	461	31
-543	786	1162	107	31
-300	1777	1553	-267	31
173	1480	839	385	31
364	375	-111	555	31
247	-87	-540	31	31
94	-444	-890	-276	31
10	-186	-1139	-428	31
181	302	-396	-149	31
-60	837	119	305	31
-182	666	46	397	31
204	-790	-104	209	31
164	-1399	-551	329	31
77	-1602	-667	3	31
167	-1304	-588	0	31
272	-727	-175	755	31
559	-158	227	-327	31
350	682	514	-457	31
-493	604	686	257	31
-628	-14	503	-191	31
-686	-379	379	275	31
-696	403	220	690	31
-147	849	-169	310	31
95	722	-611	-156	31
448	1816	-613	-189	31
347	2641	-418	-497	31
-89	1475	197	-245	31
-47	-248	668	254	31
170	-372	607	315	31
29	-1176	541	350	31
-82	-2362	302	185	31
244	-1015	61	-139	31
367	1022	-90	-935	31
232	933	240	-959	31
6	-667	445	-982	31
-84	-1503	92	-362	31
-101	-2250	-72	615	31
-67	-1862	175	520	31
-187	-34	31	1173	31
-208	727	-706	744	31
224	511	-1138	-635	31
93	252	-513	-1059	31
-194	270	914	-1079	31
81	121	1436	-456	31
151	-220	1453	-143	31
54	-177	974	-39	31
280	-80	-756	566	31
340	-118	-1464	-184	31
-5	204	-746	-259	31
4	405	-559	663	31
140	376	-360	184	31
7	677	-875	99	31
166	704	-2178	-281	31
210	698	-1341	322	31
24	757	-217	1587	31
-16	336	169	1064	31
-97	-82	1001	97	31
-228	-332	868	-214	31
-489	-79	472	518	31
-462	263	697	805	31
-134	141	797	936	31
-285	94	832	711	31
-385	-7	524	-122	31
24	-102	-45	-813	31
294	-61	-17	-1334	31
432	-12	-137	-1171	31
459	-11	534	-1543	31
344	-84	2077	-1490	31
328	-81	2011	-983	31
-43	-63	92	-394	31
-325	-1	-2234	1034	31
-355	79	-2793	1959	31
-939	342	-2311	1245	31
-668	536	-1511	-371	31
82	263	-363	-460	31
257	134	536	74	31
330	89	475	-61	31
57	-155	157	396	31
-199	-509	600	299	31
-949	-835	325	-172	31
-688	-624	125	455	31
637	-267	-78	360	31
1388	-365	-378	-317	31
1342	-342	113	-875	31
723	-59	524	-1347	31
802	47	809	-290	31
-48	392	989	608	31
-1246	609	643	241	31
-853	525	-32	-362	31
112	520	-224	239	31
-178	649	-432	1357	31
-568	737	-530	841	31
96	347	280	-473	31
-397	-375	368	-842	31
-503	-1144	-354	-140	31
54	-1278	-154	-357	31
463	-435	636	-31	31
700	400	933	119	31
512	-7	1247	27	31
595	-355	1439	741	31
32	-266	235	543	31
-12	-528	-1293	953	31
114	-32	-2137	312	31
104	365	-1925	-766	31
227	663	-295	-788	31
-279	1480	212	-791	31
-234	1792	-20	-750	31
356	1375	74	-598	31
961	538	-167	227	31
397	-198	503	716	31
-230	-963	1370	710	31
107	-1515	1411	247	31
-73	-1607	575	-97	31
-257	-942	-581	-354	31
-378	168	-924	-613	31
-326	526	-397	-91	31
-253	470	-45	87	31
-186	12	-271	149	31
-76	-405	-801	598	31
-427	-878	-814	571	31
-375	-1238	347	367	31
-266	-820	1086	337	31
-369	-308	1267	194	31
-287	164	1393	94	31
-795	354	557	87	31
-1159	547	-154	49	31
-508	297	-395	-132	31
162	-172	-419	-549	31
298	-62	-483	-1218	31
-346	120	-476	-1137	31
-427	412	-194	226	31
635	545	-737	688	31
1089	424	-1015	-43	31
1377	268	-462	-81	31
75	200	-12	569	31
-2370	156	139	261	31
-2297	66	320	-239	31
-445	19	-252	109	31
1297	-71	-917	-2	31
1546	-22	-595	-678	31
1292	85	49	-1418	31
1078	103	89	-1011	31
586	170	-315	234	31
763	559	722	1013	31
273	887	1682	723	31
-669	519	1177	417	31
-725	49	272	1178	31
-200	-609	-1226	1048	31
248	-1519	-1980	381	31
725	-917	-452	115	31
843	27	580	465	31
-265	-491	53	92	31
-937	-503	531	-1011	31
-623	114	723	-531	31
-212	541	129	-56	31
247	517	-36	639	31
155	-84	756	907	31
78	-379	1025	-72	31
-154	-616	570	-284	31
-408	-533	994	-262	31
-150	-197	-259	7	31
310	157	-1384	214	31
52	619	-1151	-285	31
-667	812	-1024	-200	31
39	822	-296	26	31
91	604	-55	-525	31
-129	564	-254	-1284	31
443	507	-365	-1619	31
180	326	-330	-761	31
-309	545	82	826	31
-580	653	410	825	31
-655	322	462	239	31
-614	-250	543	-101	31
111	-742	387	80	31
701	-465	53	750	31
755	310	69	305	31
611	-95	-14	27	31
-624	-1496	-170	-679	31
-863	-1615	50	-545	31
-475	-899	358	116	31
-726	-915	432	-129	31
385	-1006	635	20	31
1471	-669	1050	-86	31
886	-99	990	-23	31
-326	281	572	176	31
-984	611	299	585	31
-2185	1000	-597	289	31
-2090	838	-1149	558	31
956	559	-325	1208	31
3677	471	-125	194	31
2793	413	-58	-238	31
69	621	79	-804	31
240	884	-526	-875	31
874	707	-604	-345	31
899	421	-330	-19	31
92	715	-108	375	31
-976	850	-897	-291	31
-909	575	-1114	-285	31
-372	1180	-112	232	31
579	720	-205	636	31
327	-1994	-230	492	31
65	-3146	111	-622	31
-144	-2322	287	-394	31
-365	-1252	417	277	31
-5	-326	909	300	31
188	-7	1499	-135	31
29	109	1621	-335	31
-260	79	1285	284	31
-247	403	168	-21	31
-213	496	-708	-437	31
-357	86	-1090	-494	31
-475	-105	-982	-156	31
-314	-323	-791	535	31
-44	-318	-802	340	31
22	-303	-162	1149	31
60	-72	589	1354	31
234	244	785	-480	31
-219	192	627	-252	31
-533	307	-56	141	31
-247	490	-794	-432	31
159	654	-649	376	31
264	398	-340	-537	31
-224	-113	-686	-1307	31
-237	19	-1239	113	31
-195	224	-852	648	31
-67	81	128	-19	31
88	57	414	-531	31
-51	436	664	-490	31
-160	652	478	-615	31
-211	431	251	-202	31
0	7	1220	111	31
44	-426	1982	-507	31
128	-616	1996	-898	31
79	-923	960	-280	31
-39	-919	-1142	1476	31
-12	-496	-1874	2205	31
61	205	-1070	1104	31
-109	1003	-12	184	31
-236	1167	580	-216	31
317	904	-118	-401	31
69	353	-831	-428	31
-466	10	-1159	21	31
-212	14	-512	993	31
-29	162	511	753	31
120	201	572	-553	31
340	-62	69	-942	31
422	190	-723	176	31
259	948	-965	169	31
44	1210	-837	-1260	31
-307	76	-312	-1114	31
-413	-1155	184	-667	31
252	-1595	305	30	31
94	-1778	304	378	31
-183	-1138	300	165	31
495	-113	610	209	31
269	320	865	91	31
129	106	854	427	31
123	413	485	355	31
-435	549	294	266	31
-432	23	164	9	31
-77	-4	298	119	31
-49	-127	571	249	31
-14	-563	963	-488	31
499	-744	972	-1016	31
187	-373	-17	-334	31
-166	-166	119	459	31
-11	-82	-621	86	31
-76	-29	-1717	787	31
-154	-63	-676	672	31
-696	225	42	-721	31
-917	312	-350	-657	31
-745	566	-1495	69	31
145	992	-1924	1052	31
1260	714	-1091	535	31
1206	272	-101	-872	31
954	83	726	-705	31
341	-328	1371	-277	31
109	-471	1167	-73	31
363	-405	220	-34	31
325	-308	-225	-264	31
298	64	-328	598	31
-119	275	-52	1232	31
-181	304	636	415	31
15	191	1160	156	31
163	126	1172	34	31
-237	-435	885	-414	31
-566	-1256	430	-826	31
-472	-807	291	-850	31
-1106	-109	664	-429	31
-907	-193	222	-649	31
98	-207	-111	-133	31
233	188	-165	996	31
-1	450	-1627	1331	31
-212	242	-1844	1171	31
0	129	-821	688	31
464	209	-678	618	31
193	392	620	-116	31
-445	799	1311	-1237	31
-1139	1122	74	-593	31
-1255	1101	-1386	-151	31
169	793	-2012	-304	31
1977	678	-1493	-246	31
2852	570	-450	-712	31
1779	544	861	-146	31
-421	609	884	530	31
-942	33	439	-17	31
-468	-708	378	-149	31
-859	-1153	482	429	31
-1064	-1574	886	810	31
-391	-1650	726	-31	31
-799	-977	654	-1009	31
-483	-370	1125	-470	31
1189	-152	1165	527	31
589	7	661	714	31
646	73	495	314	31
1390	71	-290	619	31
-474	-47	-871	343	31
-2709	-1	-379	-284	31
-1815	32	-531	362	31
1344	29	-1333	699	31
1759	131	-1691	172	31
1146	233	-840	-1262	31
990	115	49	-1431	31
-281	-25	-184	-380	31
-798	730	-593	-21	31
-109	1076	-463	142	31
909	371	-580	-31	31
701	-109	-354	-58	31
268	-290	497	-404	31
490	2	665	4	31
359	181	882	861	31
-287	54	728	531	31
-1796	264	66	257	31
-1618	277	-84	-99	31
-1492	-267	-496	-535	31
-1514	-940	-300	-1221	31
948	-1321	700	-867	31
924	-1318	1046	362	31
213	-784	554	-267	31
513	-397	-10	-526	31
27	225	-195	325	31
-9	1100	-202	740	31
-204	1108	199	953	31
147	626	702	314	31
124	373	554	62	31
179	647	279	419	31
642	472	170	169	31
532	-84	-64	-277	31
738	-343	151	-392	31
598	-467	-52	749	31
189	-261	-986	1561	31
72	-68	-1245	291	31
-136	139	-661	-910	31
-174	390	356	-643	31
-224	148	616	-45	31
-485	162	435	-27	31
-435	1361	965	-272	31
-64	2505	615	-761	31
39	1916	-51	-587	31
6	-195	-299	274	31
72	-1965	-550	502	31
-299	-2618	-577	-185	31
-848	-2708	-124	-885	31
-879	-1830	620	-588	31
-824	-945	267	-659	31
-828	-190	27	86	31
-986	940	183	1532	31
-1038	668	670	1675	31
111	143	325	1119	31
1518	460	-712	557	31
1729	390	-1201	282	31
664	280	-2111	-103	31
59	279	-1123	-781	31
799	89	359	-595	31
778	26	628	78	31
117	194	342	-441	31
-745	295	-266	-722	31
-1211	220	310	-701	31
-349	42	733	91	31
553	-269	460	424	31
1294	-332	306	-693	31
1316	-175	-180	-746	31
253	-142	-337	-747	31
-433	-229	478	-238	31
-513	-557	1277	631	31
-484	-403	1067	491	31
-253	295	791	-267	31
-285	523	1403	-696	31
-375	589	1098	-27	31
-595	491	106	79	31
-583	204	-576	-68	31
-99	68	-2272	938	31
100	-215	-3457	2206	31
393	72	-2340	1378	31
1	460	-207	-357	31
-655	-286	666	-97	31
-189	-857	328	-62	31
921	-271	-652	113	31
807	302	-1739	962	31
117	481	-1053	-27	31
921	728	830	-266	31
1487	881	1450	275	31
-329	712	435	-726	31
-2366	62	-463	-1830	31
-1386	-405	-1390	-1084	31
-336	-298	-1576	-67	31
-312	-451	-365	34	31
-746	-604	711	512	31
-1139	-185	1523	360	31
-250	204	2175	186	31
898	305	2319	978	31
2392	-43	1465	290	31
1565	-348	337	-204	31
8	72	-553	186	31
-239	150	-949	-740	31
97	77	-128	-1098	31
-219	121	991	-415	31
-778	-285	1395	235	31
-723	-415	1009	856	31
-1165	-296	566	637	31
-262	-53	-23	-252	31
1060	264	-448	-1476	31
2011	742	304	-902	31
931	1349	1060	1321	31
505	1326	871	855	31
1125	817	-211	-773	31
174	-123	-1729	135	31
75	-1218	-2444	953	31
-149	-1582	-1293	414	31
-175	-1130	427	460	31
-590	-525	899	-198	31
-684	-353	-95	-760	31
250	-172	-1356	-527	31
244	393	-1361	-362	31
319	1045	-931	404	31
544	1210	-515	-79	31
29	1851	89	-225	31
-672	2451	305	414	31
-415	362	327	-40	31
146	-1816	657	657	31
-20	-2491	1079	610	31
-523	-2608	1422	265	31
-271	-1903	1419	432	31
21	-820	167	-90	31
1	847	-897	-734	31
261	1839	-1374	-828	31
104	1317	-1450	-122	31
-141	111	74	-351	31
-422	-987	934	-1058	31
-253	-1618	165	-1116	31
-143	-1551	-928	-800	31
-376	-914	-1217	-383	31
-114	-656	-192	-57	31
113	-514	1052	-465	31
94	20	1935	-30	31
-580	696	1225	1469	31
-458	1455	-14	944	31
2	2078	-104	652	31
-475	1394	106	1882	31
-658	-26	712	860	31
-761	-774	556	116	31
-19	-1359	-946	750	31
853	-672	-1886	249	31
365	1466	-1668	199	31
-489	2528	-292	-737	31
-557	1578	1022	-1424	31
-22	498	571	-46	31
911	-135	-227	-537	31
1139	-662	-954	-870	31
-581	-588	-1373	375	31
-580	-603	-861	347	31
762	-724	-204	-384	31
69	-751	326	-24	31
342	-305	419	1042	31
729	-141	697	422	31
-253	-766	1493	216	31
-57	-938	1489	622	31
149	-692	1029	-467	31
591	-413	779	-520	31
731	-149	277	-47	31
270	244	171	410	31
519	594	94	1100	31
-16	747	-258	-486	31
-710	668	-620	-2220	31
-716	415	-483	-1495	31
-448	403	234	9	31
-129	533	-248	824	31
291	1314	-980	512	31
616	3236	-1123	-62	31
213	3737	-714	112	31
-52	1590	129	1146	31
112	-347	-434	1375	31
365	-1795	-982	597	31
316	-2665	-175	27	31
-143	-2167	-180	-1299	31
-142	-1484	-580	-1392	31
108	-938	-226	-474	31
147	-1034	152	-673	31
-347	-1030	339	-233	31
-741	-795	227	-70	31
-194	-717	216	-459	31
236	-164	545	96	31
329	101	618	858	31
59	647	706	490	31
-746	1119	696	-115	31
-605	555	580	-109	31
46	50	1274	-293	31
245	-525	2391	-176	31
405	-1170	2298	141	31
176	-1060	948	1072	31
-292	-345	-607	1544	31
-560	210	-2529	555	31
-460	707	-2857	-552	31
9	1565	-922	-1203	31
385	1961	347	-1351	31
628	2181	386	-893	31
495	2258	503	886	31
-177	896	685	2111	31
-352	-701	-320	996	31
60	-865	-1099	-853	31
244	411	-874	-808	31
149	2486	-1122	148	31
-37	2718	-794	-133	31
130	889	379	-494	31
19	-713	885	0	31
-276	-2505	-142	207	31
46	-3829	-580	507	31
132	-3475	-116	1311	31
-215	-1376	-799	430	31
-140	872	-781	-640	31
155	558	151	-818	31
28	-694	1000	-648	31
-31	-1238	1229	-242	31
6	-2268	797	-610	31
97	-2538	135	-1013	31
347	-1466	-903	-36	31
77	-667	-401	1013	31
-482	-293	1119	322	31
-467	-113	2321	98	31
-280	263	2306	-43	31
-223	814	696	-97	31
161	1160	-1255	306	31
200	1472	-1494	27	31
-1	1083	-125	502	31
-24	618	-409	-320	31
-616	1070	-1015	-1481	31
-630	1133	-1467	-249	31
-415	609	-2195	1091	31
-91	495	-1558	1104	31
931	443	-433	1396	31
337	300	486	1050	31
-388	363	585	-204	31
-430	446	467	-206	31
256	867	623	-270	31
844	916	551	-136	31
533	352	463	41	31
636	111	537	11	31
90	-273	801	74	31
-190	-734	442	-434	31
-787	-783	384	-219	31
-1110	-323	622	79	31
-178	347	143	69	31
503	864	-184	-168	31
853	1243	59	-1339	31
872	1182	729	-1693	31
405	62	798	-612	31
-593	-951	470	-317	31
-580	-893	413	159	31
156	-1254	-284	1156	31
247	-1441	-1331	465	31
136	-904	-1340	-772	31
469	-503	-1072	-129	31
517	-347	-934	311	31
178	31	-459	-721	31
-23	748	264	-289	31
-471	1111	565	680	31
-523	1015	119	956	31
81	450	380	500	31
242	289	490	280	31
455	493	203	-90	31
741	-120	-54	-703	31
-259	-753	-204	-339	31
-670	-757	383	7	31
-495	-1063	742	768	31
-345	-1329	447	346	31
-176	-694	-72	411	31
-266	83	-526	912	31
228	109	-1094	-93	31
599	-21	-551	-1310	31
568	114	1133	-1595	31
-133	-38	2516	254	31
-530	-316	2541	887	31
-688	-642	1094	762	31
-929	-485	-1070	1213	31
-390	300	-3389	756	31
6	1063	-2854	-157	31
34	1131	-499	-174	31
131	407	147	45	31
533	39	259	164	31
509	-422	-117	893	31
518	-503	-1244	4	31
405	538	-1629	-1006	31
-23	1386	-998	-735	31
-96	1411	128	-736	31
-490	678	674	-510	31
-465	-241	841	-223	31
-259	-867	613	-364	31
-223	-445	370	-585	31
-297	512	520	-93	31
-287	608	375	741	31
-174	205	383	668	31
-6	-338	512	-23	31
540	-563	306	-153	31
638	-349	-203	-99	31
470	-373	-242	-359	31
84	-511	57	-302	31
-174	-498	432	90	31
-136	-468	1025	422	31
61	-220	1164	345	31
181	257	733	101	31
29	213	73	415	31
189	-47	-240	1054	31
252	-36	-107	257	31
438	19	-84	-816	31
294	260	180	-747	31
-612	99	64	137	31
-1308	-67	-684	597	31
-917	234	-593	-1114	31
-29	966	-116	-603	31
443	2749	371	707	31
626	2623	11	-681	31
585	173	-688	-508	31
823	-1122	-647	17	31
27	-2158	-568	-357	31
-426	-2413	179	-439	31
242	-965	439	601	31
196	305	-260	2188	31
94	435	-623	2160	31
-457	-338	-1168	1036	31
-350	-714	-1222	-530	31
80	-682	-417	-848	31
-72	-701	146	-298	31
-298	-654	969	-674	31
-458	-367	2003	-2110	31
144	-62	2570	-1686	31
491	-47	1917	106	31
226	-45	402	-249	31
-388	-52	-181	329	31
-547	-119	-906	796	31
-165	139	-1657	718	31
-74	485	-554	727	31
-275	380	-173	452	31
-265	378	-1250	284	31
-159	516	-1426	-290	31
47	537	-1479	315	31
746	689	-1331	1051	31
583	1447	-49	573	31
-249	2192	1110	-1282	31
-545	1486	1170	-1372	31
-410	294	717	-269	31
205	-882	392	-8	31
942	-2216	131	477	31
1305	-2209	461	310	31
706	-1021	984	-171	31
-120	-252	961	-415	31
-257	-255	1232	-369	31
-445	-629	1483	-82	31
-240	-880	272	711	31
443	-588	-1676	699	31
377	-153	-2324	704	31
-48	287	-1432	1207	31
-42	1000	-353	-30	31
-163	1579	329	-1189	31
-104	1562	817	-785	31
-45	749	1073	-613	31
-413	-211	787	-487	31
-445	-410	434	-177	31
-351	-497	-79	-563	31
-429	-644	-1002	-525	31
-447	-187	-1579	-220	31
-149	254	-1842	729	31
33	619	-711	632	31
-76	975	199	-155	31
502	847	45	1209	31
813	439	438	1222	31
368	-14	829	-101	31
71	-305	1347	-29	31
-533	-441	880	179	31
-578	-229	41	94	31
-244	184	-541	444	31
-389	308	-995	-122	31
-184	126	-398	-1181	31
-563	46	14	-1188	31
-601	-40	368	-1031	31
339	-229	1004	104	31
686	278	1609	1171	31
938	639	2089	1178	31
576	789	1903	875	31
384	621	759	-186	31
474	-316	-965	-618	31
81	-1041	-1912	-220	31
358	-1702	-2243	-193	31
126	-1734	-1689	-306	31
-227	-1101	-452	437	31
-157	-457	9	410	31
-119	-96	328	-1239	31
-40	-44	160	-1331	31
-425	232	61	-1005	31
-668	549	114	-238	31
-480	664	-437	1039	31
324	603	-250	682	31
449	727	-7	1179	31
-152	669	-96	827	31
249	-185	-236	-275	31
244	-1411	-196	277	31
72	-1819	151	-557	31
249	-992	377	-1422	31
-158	-270	538	-547	31
-160	143	174	628	31
-399	366	-239	506	31
-645	459	48	151	31
-248	647	1142	595	31
-221	546	1526	447	31
-178	576	1037	597	31
24	601	358	355	31
-77	445	-789	-25	31
-277	234	-903	-56	31
9	52	-117	-542	31
542	92	408	-644	31
99	-29	28	-235	31
-844	-244	-875	-211	31
-285	-455	-1206	-877	31
564	-405	-593	-478	31
251	-12	161	602	31
435	11	235	-207	31
818	-32	968	-731	31
638	335	2151	617	31
369	754	1668	452	31
139	1126	156	51	31
2	1078	-1267	653	31
-279	490	-2936	821	31
-806	-177	-2983	1286	31
-927	-770	-1505	713	31
13	-768	-2	-193	31
498	-260	953	-800	31
506	17	324	-828	31
958	-69	71	-20	31
1069	-308	-201	-369	31
695	-235	-792	244	31
-189	2	-450	503	31
-477	38	192	-269	31
-259	-4	662	-87	31
-275	-21	577	-159	31
-276	-64	701	-397	31
-415	-214	724	-1001	31
-351	-204	673	-771	31
-253	-180	553	-342	31
116	-376	149	-325	31
293	-249	-79	-176	31
-377	110	284	407	31
-627	360	957	915	31
-227	511	917	823	31
104	82	513	1016	31
58	47	83	-12	31
-380	1019	-433	-422	31
-210	1434	-696	-184	31
280	689	-441	-232	31
293	-418	-364	898	31
167	-584	-450	394	31
-157	-822	-507	-926	31
-317	-1171	-244	-400	31
-596	-304	76	179	31
-687	335	121	66	31
-54	727	483	108	31
528	654	437	144	31
856	-105	486	21	31
251	-563	281	-369	31
-246	255	-116	-535	31
219	544	58	-432	31
222	-1594	-147	-91	31
102	-2498	-259	798	31
237	-1867	-71	983	31
553	-1102	19	359	31
-189	-79	81	-405	31
-1959	626	462	-625	31
-1867	937	706	-203	31
163	636	816	-142	31
1604	597	873	-602	31
317	557	209	-320	31
-1836	456	-97	269	31
-1446	330	-414	-181	31
435	305	-1885	365	31
1618	712	-2619	1177	31
899	730	-2167	682	31
204	583	-904	-44	31
1167	226	553	-252	31
1093	-162	522	-320	31
828	-425	219	-625	31
908	-385	85	-630	31
219	-236	312	-227	31
146	-328	926	386	31
74	-89	1004	352	31
-106	-59	1235	599	31
-292	-81	1596	667	31
-39	14	1268	-70	31
423	41	86	-494	31
149	164	-742	-340	31
-39	211	-1546	358	31
-601	377	-1381	520	31
-1623	352	457	243	31
-1997	191	825	159	31
-821	80	24	182	31
121	-72	-990	-181	31
989	-47	-2222	-495	31
1767	419	-1947	-677	31
869	862	-564	-595	31
-12	258	225	896	31
-1026	-724	834	587	31
-467	-852	1199	-1035	31
513	-516	1109	-1120	31
-156	-486	1880	-1530	31
-1306	-556	2058	-289	31
-2641	-120	1021	558	31
-1806	258	150	-257	31
521	-12	-387	1357	31
2240	-40	-1152	2329	31
2095	139	-1987	1412	31
966	116	-1521	526	31
-347	165	-1053	45	31
-620	260	-1078	172	31
363	433	-638	-152	31
380	560	-177	-185	31
735	422	158	94	31
523	57	308	-152	31
427	-284	682	-312	31
416	-432	1326	-475	31
-310	-197	2141	-465	31
-144	115	2062	-649	31
-133	187	905	-762	31
-21	574	-64	32	31
-207	1253	-1243	464	31
-400	1111	-1702	-133	31
-173	-299	-809	-883	31
-104	-1827	-190	-991	31
-87	-1794	55	-698	31
-322	-493	679	-46	31
-358	172	1207	-104	31
-79	-163	1281	-705	31
7	-583	701	-796	31
-159	-309	-439	-93	31
83	-52	-1226	1232	31
44	-419	-1208	1564	31
-371	-305	-987	1377	31
-681	124	-745	678	31
-458	295	-195	351	31
-177	511	-227	74	31
-849	573	-338	-355	31
-855	568	21	-25	31
-289	362	223	-94	31
827	94	487	369	31
1209	97	738	357	31
-219	26	884	356	31
-493	-86	662	452	31
-63	-175	269	137	31
232	-159	-282	-279	31
-349	-65	-925	-1101	31
-403	69	-486	-1114	31
505	47	514	-680	31
536	-184	896	-498	31
1068	-127	533	-93	31
796	126	-126	952	31
516	327	-654	710	31
493	435	-622	29	31
-26	443	174	-252	31
-308	531	1110	-642	31
-296	953	1319	-375	31
-344	1070	723	32	31
-256	249	167	282	31
420	-538	-899	367	31
-101	-815	-1939	1139	31
-573	-902	-1709	377	31
286	-852	-1026	-926	31
1320	-563	-47	-1036	31
720	47	1170	-1570	31
-492	489	2484	-587	31
-1165	466	3746	357	31
-1493	-252	3224	217	31
-861	-1309	885	729	31
-479	-1641	-1368	783	31
232	-1257	-3829	-86	31
860	-571	-4000	460	31
954	348	-2484	1531	31
308	1052	-566	1139	31
-709	1150	-826	-161	31
-1027	903	-686	-1206	31
-289	640	-332	-735	31
1907	438	-433	204	31
1455	373	88	1530	31
-119	240	678	1186	31
214	-99	859	253	31
-83	-184	533	450	31
354	-132	310	-595	31
1187	-150	588	-907	31
528	62	1461	-446	31
-78	187	2585	324	31
224	-6	2327	147	31
-540	-385	872	-235	31
-1365	-577	-883	394	31
-1257	-128	-1669	-914	31
-1202	423	-1405	-2063	31
-557	863	-820	-1262	31
-204	1194	-210	-79	31
447	615	-267	752	31
596	125	35	313	31
284	272	560	-598	31
82	-239	867	-389	31
-808	-727	1135	375	31
-324	-559	1141	464	31
522	-411	902	166	31
981	-404	872	119	31
339	-722	382	207	31
-1096	-1169	-766	-378	31
-623	-982	-1749	-865	31
700	-161	-2452	255	31
1659	822	-1234	1059	31
573	1658	-167	833	31
-488	1729	-471	1151	31
4	643	-578	459	31
-15	-233	-616	-996	31
124	-504	-317	-160	31
-7	-1221	-525	267	31
244	-1440	-249	-202	31
337	-919	633	-264	31
780	-618	759	-623	31
956	-227	746	-134	31
-1348	-21	864	191	31
-2699	44	1195	437	31
-1217	353	1549	449	31
462	474	1157	610	31
104	409	344	961	31
230	140	22	143	31
374	-96	-255	147	31
-710	148	-620	-277	31
-409	74	-713	-1687	31
725	-509	-450	-778	31
283	-204	271	5	31
-408	392	658	-165	31
303	367	107	606	31
-39	259	-625	-12	31
145	237	-1108	-818	31
562	573	-1240	-197	31
271	568	-658	183	31
566	184	60	-380	31
285	490	743	-492	31
230	1241	999	572	31
-16	2353	526	391	31
-191	2814	-63	-329	31
-714	1708	-436	-31	31
-1252	-82	-164	1032	31
-544	-2408	323	1337	31
62	-3706	905	-124	31
595	-2882	1597	-988	31
883	-1547	1325	-748	31
991	-469	29	-963	31
731	209	-952	-1367	31
312	621	-1525	-384	31
-148	481	-2301	1044	31
-610	45	-1987	1061	31
-839	-152	30	923	31
-1323	-767	2144	627	31
-1370	-889	2814	-271	31
-971	-187	2178	225	31
258	156	683	547	31
1463	11	-2037	-44	31
1705	-287	-3318	-113	31
1425	-119	-1627	74	31
678	124	-601	216	31
392	217	-345	201	31
514	471	984	156	31
-44	460	2025	146	31
-1202	396	1278	-360	31
-1191	329	-190	-645	31
27	231	-1445	436	31
418	147	-2395	1027	31
70	220	-1530	106	31
22	672	-202	-476	31
-673	539	458	-507	31
-446	-43	571	-391	31
355	-56	537	-213	31
27	41	770	-142	31
402	-306	466	-202	31
-507	-616	492	-480	31
-1613	-390	244	-1073	31
-423	104	53	-956	31
715	688	610	343	31
500	1381	687	442	31
177	1165	575	616	31
141	239	257	618	31
113	57	-385	350	31
453	-234	-680	750	31
-370	-367	-298	329	31
-1112	-234	322	189	31
-419	-500	724	-268	31
-269	63	1013	-649	31
3	1073	1148	-516	31
853	1273	906	-237	31
1192	342	-24	275	31
1041	-806	-1040	-439	31
292	-1622	-1526	-257	31
-397	-1864	-1458	885	31
-162	-1622	-880	-179	31
-65	-997	-518	-733	31
-263	-406	-593	128	31
194	-593	-516	873	31
781	-392	-206	836	31
336	-56	357	-471	31
-922	157	894	-680	31
-840	456	912	-111	31
-88	591	736	370	31
250	542	442	374	31
458	453	157	-341	31
-169	788	-140	156	31
-193	536	-443	281	31
275	155	-72	249	31
225	192	469	648	31
-400	-255	353	-592	31
-520	-594	66	-745	31
17	-234	29	49	31
-91	112	-275	152	31
-41	262	-246	254	31
135	681	415	78	31
447	483	561	-86	31
285	-118	259	61	31
-198	-137	-84	-26	31
-70	-95	-192	-614	31
119	25	312	-84	31
49	-74	1287	330	31
-44	-350	2183	19	31
-86	-430	2213	-226	31
-293	-570	927	-472	31
-122	-319	-449	487	31
-164	527	-1977	854	31
-764	1656	-3303	120	31
-1297	2142	-2454	-115	31
-664	1487	-1524	-517	31
915	472	-1977	-422	31
1018	-348	-1970	-117	31
-63	-922	-688	-367	31
-267	-1013	447	-395	31
288	-733	706	-282	31
307	-537	797	-140	31
-24	-446	662	612	31
-230	-438	719	1202	31
-107	-313	804	327	31
92	-201	516	186	31
-182	-152	174	437	31
171	122	-85	364	31
618	440	-401	287	31
187	599	-394	-244	31
-2	263	473	-39	31
-389	-84	965	-469	31
-503	-182	859	-743	31
59	-163	402	-424	31
44	284	-427	-103	31
22	531	-612	473	31
140	355	-391	-157	31
613	-87	217	-863	31
1105	-840	739	-468	31
473	-1355	207	-303	31
-621	-1080	-264	831	31
-898	-132	-152	1177	31
-329	325	-128	471	31
129	20	227	557	31
772	189	1097	-507	31
733	721	1100	-267	31
-587	313	769	-247	31
-751	-579	609	-394	31
323	-1048	-139	309	31
953	-706	-269	-21	31
773	404	-16	-116	31
41	973	-185	267	31
21	967	-638	1033	31
-232	856	-1150	302	31
-618	1145	-1000	303	31
-581	1512	-599	1001	31
-518	818	-230	282	31
99	554	-122	-1038	31
132	511	-276	-1764	31
473	-983	-309	-853	31
307	-1916	-185	-698	31
-249	-1555	-74	-623	31
-52	-1412	-229	138	31
-342	-1199	2	490	31
-175	-457	600	254	31
-25	-93	911	9	31
20	-181	852	-105	31
-282	86	688	-359	31
-61	401	305	-332	31
697	649	-494	-429	31
177	503	-672	257	31
-621	252	-663	1237	31
-1469	423	-812	468	31
-1290	285	-110	-770	31
-1603	330	428	151	31
-2896	701	473	1096	31
-1407	573	348	-69	31
898	5	-52	-64	31
2300	-311	-165	674	31
3316	-403	118	327	31
1836	-269	294	14	31
1208	356	329	-140	31
1126	312	571	-184	31
-653	-319	235	-304	31
-470	-404	439	162	31
116	-380	1753	510	31
15	-518	1606	132	31
-298	-195	824	-139	31
-174	212	1266	123	31
613	303	-143	254	31
608	295	-2871	-494	31
506	181	-3309	-1092	31
83	152	-2281	-1057	31
112	-39	-1057	-290	31
113	-177	-309	34	31
-261	-142	219	-320	31
-119	-32	363	-124	31
-34	411	289	171	31
-156	553	342	396	31
-144	145	202	259	31
363	-145	-36	360	31
236	-205	-156	277	31
136	-687	-208	535	31
106	-755	206	490	31
371	-36	1445	-130	31
137	185	1459	713	31
-1026	265	799	190	31
-646	353	-15	117	31
-204	-47	-1039	392	31
66	-27	-438	-229	31
-475	388	-69	-543	31
-1385	529	39	-756	31
-327	577	814	121	31
246	383	994	503	31
121	-250	438	267	31
516	-1091	79	-448	31
-108	-1031	427	331	31
-595	-780	-310	440	31
-460	-509	-613	-1609	31
-701	425	-803	-1327	31
-708	325	-2474	802	31
-623	450	-2158	968	31
-270	884	-297	-1359	31
-109	726	237	-918	31
564	745	-306	349	31
1062	178	-203	937	31
244	-124	445	1366	31
-85	-188	595	498	31
-116	-504	522	495	31
-112	-652	362	-186	31
92	-604	390	-429	31
-180	-420	787	-129	31
-367	-539	826	52	31
435	-292	574	28	31
945	439	440	-407	31
1199	1045	215	-277	31
1593	829	32	-30	31
917	141	-64	-223	31
285	-271	-252	-524	31
87	-496	-343	261	31
-179	-84	-319	633	31
-247	351	-294	-307	31
-46	532	355	-1188	31
250	313	1034	-640	31
-415	41	592	-181	31
-968	671	91	-469	31
-190	656	-68	-162	31
21	-278	-152	307	31
-392	-734	176	748	31
-636	-811	282	809	31
-260	-577	179	185	31
322	21	352	-650	31
-22	445	-155	-357	31
-328	480	-1289	548	31
-234	254	-1645	1346	31
-54	-41	-957	912	31
-145	-809	-487	185	31
-250	-1239	-42	955	31
-128	-769	850	-232	31
157	-654	829	-599	31
381	-426	408	-121	31
230	16	379	-999	31
67	468	797	-984	31
-359	1403	1085	-1053	31
-383	2157	827	24	31
160	1673	-49	961	31
360	595	-868	569	31
-206	-433	-273	-62	31
-418	-1628	32	-228	31
107	-1607	121	449	31
11	-1080	406	1237	31
-95	-731	25	21	31
-331	-139	265	-1056	31
-681	-26	536	171	31
-143	-155	-212	1190	31
586	40	-1928	1853	31
518	353	-2976	396	31
144	351	-2165	-851	31
-225	257	-1007	-626	31
313	37	-729	-804	31
844	-60	-309	-469	31
374	122	414	-793	31
32	277	561	-899	31
-349	435	1249	-32	31
93	450	1996	405	31
194	260	1802	709	31
534	-174	951	-12	31
600	-454	-51	-1233	31
-617	-515	-882	-269	31
-831	-355	-1248	224	31
-502	235	-177	-159	31
167	590	872	12	31
666	607	957	465	31
678	74	1126	905	31
-337	-563	668	220	31
-977	-375	-415	-186	31
-787	151	-1148	-444	31
-573	418	-1309	-830	31
534	401	-971	-317	31
229	142	-214	951	31
-89	-400	575	689	31
504	-212	990	-570	31
124	411	1248	-442	31
176	282	1273	-548	31
721	9	1057	-68	31
136	111	367	474	31
-1063	124	-379	144	31
-1012	-130	-905	117	31
-384	86	-1774	308	31
101	256	-1690	364	31
755	428	-523	477	31
908	1199	628	530	31
804	1106	1129	-424	31
846	416	618	-481	31
633	-458	-81	-166	31
371	-1711	-899	247	31
283	-1369	-1231	964	31
57	-16	-423	593	31
36	151	377	474	31
3	138	522	68	31
-271	69	339	-224	31
-347	-683	-19	-221	31
-442	-1042	-430	-1035	31
-431	-918	-305	-954	31
-117	-784	13	-266	31
62	-451	513	-650	31
-71	424	1201	-597	31
-255	1648	1473	-124	31
-604	2559	1228	-42	31
-905	1866	11	326	31
-1072	547	-1107	304	31
-948	428	-1203	69	31
-553	700	-768	408	31
127	1342	-232	708	31
1049	1027	640	330	31
996	-931	1351	615	31
847	-2235	1059	241	31
-36	-2802	353	-275	31
-848	-2792	-139	141	31
115	-2037	35	344	31
2	-1068	-131	-52	31
-550	-413	-577	-925	31
-536	-202	-1330	-4	31
-339	140	-2148	868	31
170	406	-1489	-141	31
516	430	-232	-597	31
586	365	734	-157	31
320	613	1011	-240	31
323	837	974	-385	31
55	619	1207	-672	31
207	343	1445	-292	31
414	92	1259	437	31
578	-102	435	349	31
410	-269	-422	-846	31
-281	-64	-1714	-1236	31
-281	616	-2832	486	31
-1199	1351	-2218	1666	31
-902	1159	-839	1873	31
-51	258	-251	159	31
114	-410	292	-1766	31
446	-1346	770	-876	31
11	-1179	151	-41	31
338	-195	-11	148	31
-387	-52	536	848	31
-1368	-42	639	901	31
-1025	2	882	450	31
-49	599	1024	176	31
1170	806	535	2	31
742	356	124	-332	31
708	292	-126	-231	31
862	312	-621	113	31
332	624	-421	575	31
415	470	149	643	31
626	-202	179	4	31
964	-448	464	-690	31
400	-412	290	-1181	31
-68	254	-234	-452	31
104	1253	-406	-96	31
-50	895	143	-413	31
-666	160	1011	352	31
-989	-306	1275	527	31
-848	-939	1279	648	31
-449	-420	752	687	31
153	148	240	190	31
-59	-286	-199	-771	31
500	-596	-691	-1652	31
326	-393	-1070	-881	31
-651	-779	-1328	-238	31
-463	-1236	-936	111	31
-255	-581	-126	632	31
159	408	256	676	31
243	1163	-107	246	31
368	1133	7	572	31
581	706	194	452	31
500	679	-560	-187	31
136	501	-1056	-1895	31
-282	-200	-694	-2266	31
149	-829	-681	1023	31
156	-1562	-695	2019	31
-342	-1825	183	878	31
-175	-879	705	4	31
32	560	711	27	31
57	2091	387	623	31
-14	1817	264	375	31
-315	110	482	528	31
-249	-732	708	379	31
-99	-573	1682	167	31
-642	451	1665	470	31
-878	953	334	503	31
-426	426	-194	97	31
67	-292	-214	-904	31
483	-1491	-811	-760	31
191	-2277	-1342	-4	31
-277	-1868	-1513	-508	31
-270	-656	-1815	-1514	31
-124	136	-866	-2183	31
11	56	921	-897	31
-15	414	1469	792	31
-159	664	998	862	31
204	611	81	463	31
589	470	-994	158	31
273	126	-1430	689	31
49	281	-898	86	31
11	557	-320	-476	31
64	493	769	181	31
224	81	2021	237	31
87	-219	1250	227	31
-611	39	141	227	31
-552	380	-459	-26	31
132	595	-1024	-442	31
153	438	-575	304	31
382	-9	547	-41	31
101	-105	1386	-1710	31
-467	-539	1030	-629	31
-174	-958	3	219	31
-727	-440	-630	151	31
-1378	150	-125	1071	31
-56	494	514	813	31
1067	525	287	181	31
961	570	-18	179	31
1265	884	-460	402	31
1123	877	-814	676	31
745	778	-864	716	31
974	749	-831	544	31
309	828	-824	-187	31
-394	1052	-617	-67	31
-578	586	-66	94	31
-611	-939	462	667	31
-28	-2027	1114	677	31
-257	-1605	1406	-292	31
-374	-845	1063	-102	31
522	-117	730	-518	31
347	300	112	-1066	31
-60	-370	-265	-1545	31
235	-892	358	-1328	31
3	-914	721	-950	31
-200	-942	380	-557	31
-390	-566	-106	76	31
-659	-139	-1217	6	31
-263	397	-2250	597	31
-492	698	-2296	1163	31
-822	369	-1304	565	31
-131	398	728	705	31
364	749	1857	885	31
-247	790	1683	300	31
-875	385	1331	1324	31
-240	155	372	1522	31
-238	77	-816	-46	31
-901	-129	-1197	-1921	31
-562	-52	-735	-1540	31
496	-36	-686	-697	31
1090	102	-1100	-1707	31
1152	654	-1301	-1545	31
1179	634	-773	-932	31
531	605	752	490	31
296	1525	1719	1131	31
168	1068	2121	170	31
177	-398	2045	1187	31
401	-42	639	2935	31
-119	1149	-1175	1782	31
-432	1512	-2070	-616	31
-493	348	-1416	-1200	31
-260	-1420	-292	-1229	31
181	-2662	442	-1192	31
379	-2789	1301	-17	31
-101	-1053	1627	536	31
-310	623	963	691	31
250	-149	158	1215	31
219	-1987	-451	1156	31
-51	-2877	-839	355	31
-104	-3017	-616	-1381	31
-183	-1625	111	-1788	31
-347	127	609	-1363	31
-94	740	654	-963	31
450	770	-156	267	31
184	245	-775	-395	31
-493	178	-689	-852	31
-603	426	-723	808	31
-272	689	344	1329	31
-258	1009	1426	1205	31
22	987	694	1003	31
179	807	-598	269	31
-182	671	-1646	426	31
-109	794	-2119	150	31
-138	764	-1503	-543	31
75	699	-384	-653	31
444	740	466	-153	31
463	234	837	786	31
292	-560	813	-13	31
-195	-651	1036	-600	31
137	-667	1320	-134	31
552	-566	1070	-351	31
26	361	531	-152	31
151	891	41	377	31
271	1098	-420	715	31
-474	1220	-733	-57	31
-375	962	-487	-778	31
393	511	-76	-242	31
29	48	171	968	31
-200	170	398	1642	31
249	1447	661	244	31
197	2604	670	-191	31
494	1621	222	149	31
122	66	-496	-898	31
-519	-1028	-540	-1712	31
-471	-1764	137	-977	31
-451	-1539	117	-191	31
21	-1432	435	-364	31
151	-1448	1238	-80	31
-160	-1817	1265	-374	31
-226	-2848	602	-377	31
-111	-2425	-755	974	31
-56	-358	-1809	1554	31
171	1465	-1970	248	31
-89	2358	-1445	-367	31
-614	1478	-774	-64	31
-167	-98	-267	-685	31
-67	-746	55	-1044	31
72	-1377	-152	-762	31
102	-1034	-12	-222	31
-463	458	975	-230	31
-148	950	1681	-289	31
67	460	1195	674	31
20	96	527	1785	31
67	-90	234	1599	31
-266	-74	-224	895	31
-245	313	-614	35	31
416	492	19	-808	31
380	603	346	-1238	31
-171	804	-560	-663	31
200	555	-542	1410	31
633	-99	-803	2504	31
486	-486	-1215	1491	31
2	-247	-944	121	31
182	893	-849	-844	31
592	2717	-278	-1778	31
197	2555	409	-1473	31
307	459	1603	-730	31
-546	-1389	2665	-254	31
-1330	-2908	2436	124	31
-663	-2849	988	-265	31
-750	-1589	-561	-59	31
50	-643	-1549	374	31
810	-509	-1901	-188	31
537	-668	-1661	-366	31
455	-89	-1314	669	31
390	356	-708	2098	31
661	412	-338	1215	31
464	196	195	-1187	31
-28	-27	401	-1728	31
-356	-23	325	-2349	31
95	207	81	-772	31
385	224	-252	1266	31
10	-152	74	-365	31
245	340	659	-377	31
516	1393	1068	302	31
337	2173	835	292	31
-197	2121	574	354	31
-417	928	393	841	31
-963	-644	620	2133	31
-979	-1328	946	1174	31
30	-1231	1280	679	31
149	-849	1074	653	31
-57	-583	-369	-367	31
-266	-729	-1627	-245	31
-207	-269	-2542	-960	31
506	132	-2689	-1039	31
439	845	-1535	-571	31
-568	2970	52	-885	31
-606	4000	961	40	31
232	3810	1380	367	31
665	441	1152	527	31
443	-1515	244	545	31
-196	-3656	-215	-309	31
-528	-4000	-382	-166	31
-590	-3284	-470	-125	31
-857	-1552	-209	152	31
-607	-697	441	396	31
37	-11	961	-509	31
473	305	822	-1005	31
843	-14	535	-683	31
794	486	454	-41	31
221	858	463	-23	31
-207	894	592	-346	31
-126	1301	1188	-2	31
-190	1377	1696	449	31
-350	290	924	733	31
-625	-1095	-157	447	31
-300	-975	-1285	157	31
-172	-1018	-2459	384	31
-257	-757	-2334	-78	31
239	455	-1293	-505	31
-286	1049	-40	-125	31
-380	1112	626	457	31
-160	437	220	-11	31
511	-315	-117	-665	31
1779	-873	-388	202	31
1522	-701	-706	331	31
406	-567	-335	-427	31
-614	-1159	-20	-152	31
-562	-619	224	-39	31
398	61	713	-113	31
447	343	959	-53	31
-22	383	792	-543	31
63	304	354	149	31
46	425	-95	643	31
-428	223	-486	27	31
-460	397	-178	465	31
154	711	164	865	31
407	820	157	1247	31
-163	1085	26	630	31
-619	1200	-473	-990	31
-205	722	-234	-870	31
379	740	-14	-24	31
-13	1214	-1020	239	31
-122	-271	-1533	-517	31
229	-1925	-413	-1198	31
-509	-1615	954	-894	31
-230	-1823	1265	-553	31
567	-2305	717	-46	31
476	-1405	121	984	31
234	-681	-578	701	31
-628	-363	-842	-54	31
-526	300	-125	-40	31
-401	683	205	-314	31
-1187	784	1	174	31
-863	1160	-54	349	31
-614	1539	621	729	31
226	1565	1208	448	31
1389	1597	837	-622	31
1023	1279	613	46	31
1106	418	-257	923	31
1047	-565	-1148	500	31
553	-975	-966	-312	31
753	67	-470	78	31
523	781	631	156	31
-242	-155	1256	31	31
-606	-1493	724	-32	31
-328	-1642	-11	137	31
-309	305	-722	622	31
-445	1916	-805	79	31
-445	1622	-396	-478	31
-295	587	-80	-840	31
-137	-1211	434	-417	31
-660	-2311	927	47	31
-954	-1904	1403	-153	31
-327	-923	1150	-606	31
115	269	426	-1382	31
-36	254	-195	-780	31
-52	239	-1351	149	31
306	431	-1405	-615	31
55	-152	-505	-361	31
-525	348	-551	555	31
-236	891	-809	-132	31
-3	550	-764	367	31
196	102	-969	1599	31
343	-387	-909	1091	31
105	-662	-548	384	31
129	-526	182	-8	31
139	584	1080	-61	31
132	1602	1414	162	31
187	712	1310	-78	31
161	-649	655	-221	31
43	-832	87	-97	31
89	-1026	-78	86	31
395	-807	115	-250	31
312	-549	832	-297	31
-284	-719	1348	-209	31
-295	-463	744	-80	31
-518	-307	-256	201	31
-683	274	-526	-162	31
-409	668	-252	354	31
-355	988	-21	885	31
-82	1213	-544	618	31
-350	695	-1491	-781	31
-276	1025	-1612	-1714	31
80	539	-644	-282	31
451	-392	562	1058	31
729	313	1213	-58	31
858	473	620	-1184	31
1122	-258	-267	57	31
505	-1189	-894	929	31
252	-1687	-1622	863	31
89	-1870	-1187	52	31
-101	-1286	380	134	31
25	72	1150	898	31
-443	420	925	34	31
-164	635	1163	-650	31
12	549	1668	-300	31
-47	149	1595	389	31
188	387	447	261	31
7	675	-1097	540	31
-122	721	-2591	655	31
-551	925	-3326	-759	31
-571	2069	-1738	-902	31
42	2221	762	-949	31
705	1051	1893	-1059	31
-154	57	1737	-259	31
-788	-1936	1119	-530	31
112	-2846	546	-1455	31
380	-2303	365	-1157	31
588	-2052	421	217	31
242	-1341	775	1173	31
81	-529	797	3441	31
-102	315	165	3619	31
-206	473	-517	928	31
166	198	-1011	319	31
109	362	-1636	-257	31
189	364	-1598	-734	31
-122	345	49	-600	31
-124	457	1071	-1143	31
-137	430	773	-1782	31
61	288	210	-1066	31
522	397	-799	254	31
-36	701	-1119	1108	31
-532	740	-696	1184	31
-480	718	-302	-514	31
-582	982	19	-1157	31
-858	831	-234	-763	31
-259	344	-51	194	31
-95	-36	872	676	31
-888	-402	863	-599	31
-152	-536	216	-1087	31
931	-909	-133	-852	31
1041	-737	-333	51	31
759	-217	-331	391	31
42	263	-223	-454	31
-320	2830	305	381	31
-129	4000	1059	1870	31
-227	4000	1565	1374	31
-321	689	1577	-271	31
-97	-2593	774	-1715	31
-52	-4000	78	-1546	31
310	-4000	-722	585	31
326	-4000	-1630	1698	31
195	-2357	-1303	793	31
334	-616	-359	267	31
215	961	49	-309	31
313	1246	-91	-449	31
-51	235	-550	158	31
-191	-702	-799	643	31
407	-521	-195	96	31
588	340	-35	-521	31
575	855	-199	319	31
289	601	519	-387	31
-660	253	784	-268	31
-1041	-591	179	76	31
-284	-775	-338	-682	31
345	37	-188	-9	31
393	656	359	238	31
131	1124	636	382	31
-106	1093	929	344	31
-277	989	696	-264	31
-567	632	32	-698	31
-251	189	-131	-808	31
81	-442	-590	-562	31
-47	-897	-687	520	31
-135	-449	33	1843	31
-272	-119	546	1227	31
-21	67	1103	237	31
354	127	1414	178	31
226	154	826	68	31
-20	192	-385	150	31
89	275	-1573	107	31
71	675	-2099	-1133	31
96	881	-1613	-2370	31
647	734	-652	-1499	31
823	101	595	-176	31
176	-625	1702	665	31
-172	-440	1669	695	31
-107	226	1245	-104	31
-111	119	79	525	31
-36	8	-1576	1856	31
-423	463	-2228	1108	31
-668	169	-1299	-835	31
-314	-470	284	-1029	31
147	-621	686	-988	31
197	-492	486	-1036	31
-145	-58	292	-31	31
5	239	77	470	31
308	354	168	704	31
422	758	-39	1302	31
18	1152	-310	1557	31
-587	1038	2	127	31
-222	547	540	-1571	31
11	97	432	-870	31
-219	-526	-279	-170	31
-66	-1155	-535	-410	31
-84	-1098	-781	-267	31
181	-932	-674	-262	31
252	-986	-73	32	31
-239	-582	750	488	31
-218	273	2068	796	31
-14	1679	1542	790	31
-625	1977	66	673	31
-960	44	-855	-231	31
-478	-1083	-2281	91	31
81	-1555	-2271	171	31
877	-980	-234	-1348	31
723	1585	1544	-684	31
314	2721	1843	-518	31
254	2297	1138	187	31
-4	428	-202	1281	31
-194	-1434	-1325	379	31
-232	-1991	-1335	-124	31
9	-2579	-940	295	31
123	-2155	-511	552	31
181	-1783	-64	-27	31
-229	-687	124	-267	31
-573	697	513	-345	31
14	348	808	-292	31
482	289	596	-420	31
299	649	784	-696	31
-49	863	1429	-254	31
-127	244	2183	219	31
362	-624	2189	197	31
269	-574	1126	883	31
11	-762	-318	1932	31
-137	-1097	-1859	988	31
-503	-582	-2808	252	31
-392	283	-2561	-519	31
-650	716	-1504	-2183	31
-234	692	-645	-1592	31
403	592	45	-372	31
-257	380	612	-332	31
-969	109	595	-214	31
-27	99	543	-964	31
1460	237	219	-1341	31
1074	503	-11	374	31
255	549	824	2238	31
-196	451	2059	1881	31
-214	723	2470	287	31
-87	1229	1721	292	31
1	1382	179	249	31
967	791	-1578	121	31
728	35	-2149	723	31
91	-591	-1747	345	31
63	-1052	-822	-847	31
-129	-992	-292	-1573	31
-383	-682	-949	-987	31
-751	-335	-1137	-270	31
14	23	-680	593	31
409	536	65	617	31
159	1499	469	-393	31
278	1994	638	-983	31
435	1306	1533	-998	31
602	-535	1571	-449	31
114	-2388	612	-559	31
-367	-2358	-520	721	31
-337	-1211	-1471	2209	31
-97	-197	-994	1104	31
-383	164	-195	-31	31
-881	1221	340	-127	31
-480	4000	372	77	31
72	4000	-435	1164	31
223	1682	-827	1909	31
110	-1853	-562	245	31
97	-4000	26	-925	31
337	-4000	1152	-798	31
97	-3289	2577	-954	31
-222	-618	2236	-420	31
-129	-490	595	-552	31
107	-556	-1096	-565	31
234	28	-2713	325	31
101	307	-2710	1177	31
-311	527	-803	565	31
-518	664	1519	-629	31
130	579	1529	-403	31
354	1109	423	-709	31
-388	1470	-186	-956	31
-610	1226	-388	-237	31
200	328	453	89	31
325	-621	866	-609	31
-401	-631	826	-258	31
-492	-41	340	467	31
-207	988	-631	705	31
-224	1656	-847	1113	31
12	1290	-146	473	31
448	4	145	-239	31
290	-958	-142	-347	31
341	-859	-202	199	31
181	-584	-526	-34	31
-113	299	-693	53	31
342	470	-406	277	31
209	247	289	223	31
37	624	847	515	31
188	-806	634	-107	31
127	-999	371	-462	31
118	691	259	-942	31
-287	707	129	-299	31
-417	300	200	270	31
-328	-278	1075	24	31
-435	-1097	2456	240	31
-329	-1435	2523	136	31
-136	-1174	644	-121	31
200	-1146	-1766	483	31
366	-768	-4000	2035	31
395	222	-4000	813	31
538	225	-2347	-1806	31
488	394	58	-1970	31
706	469	1204	-485	31
-121	359	1495	-98	31
-1232	593	1135	-1032	31
-848	543	861	-776	31
-677	432	422	-805	31
-430	324	-92	35	31
-176	696	-383	1745	31
137	1416	-185	552	31
721	1313	-12	-369	31
630	242	-159	1207	31
508	-118	535	1473	31
530	-431	1248	-250	31
319	-1127	856	-1227	31
134	-672	-151	-114	31
9	-288	-1154	1661	31
-264	-290	-1552	1692	31
-10	-40	-1301	256	31
142	-6	-100	-79	31
-249	-301	1679	104	31
138	-551	2361	302	31
476	-697	2128	335	31
365	-603	1605	-751	31
217	-17	378	-1365	31
-227	276	-1160	-679	31
-325	677	-2160	-121	31
-157	1664	-2797	-767	31
83	2117	-2091	-275	31
120	1248	-217	370	31
-311	13	336	-617	31
-194	-841	681	-851	31
259	-995	521	-959	31
-291	76	-87	-96	31
-820	534	-102	1079	31
-478	241	-199	279	31
7	72	425	1382	31
284	-691	242	2373	31
-411	-1140	-489	575	31
-673	-1157	-603	-315	31
-125	-518	-272	-1399	31
479	658	174	-2760	31
773	556	502	-547	31
-36	-312	509	1066	31
-223	-776	-173	-260	31
-64	-1018	-472	-257	31
127	-1002	-493	-638	31
133	909	49	-665	31
123	3148	378	344	31
201	1480	272	1374	31
-69	-1098	67	1933	31
302	-2074	339	552	31
249	-2767	1379	570	31
291	-880	1875	953	31
274	1496	1484	-204	31
32	1162	385	-836	31
-62	-187	-1164	-1101	31
-483	-962	-2228	-1131	31
-663	-511	-1636	-798	31
-588	59	-667	74	31
-245	453	318	1612	31
124	1220	453	1494	31
114	679	2	728	31
-6	94	455	117	31
210	888	894	-482	31
19	826	801	369	31
185	298	325	-443	31
474	-223	-285	-1769	31
139	-1098	-952	-1319	31
6	-761	-547	-472	31
66	51	688	-688	31
21	-77	1087	23	31
-547	-337	354	1297	31
-428	-455	-210	179	31
-59	-894	-317	525	31
-245	-1028	-482	652	31
-229	-350	-558	-140	31
-111	-38	-430	-612	31
272	-62	-164	-1076	31
422	263	-32	-297	31
318	516	767	-84	31
195	1061	1523	152	31
412	1398	1200	580	31
638	661	260	488	31
-196	74	-977	720	31
-697	-210	-2018	449	31
-453	-318	-2198	-496	31
-34	721	-1187	274	31
122	1314	341	905	31
74	677	1356	32	31
420	220	1838	-400	31
433	-49	1790	-77	31
224	-236	836	568	31
-233	-356	-182	-718	31
-450	-495	-418	-1777	31
-623	-564	46	-690	31
-824	-792	817	-1091	31
-86	-305	1155	-1658	31
425	1150	175	-7	31
629	1783	-1520	918	31
308	1073	-2946	975	31
-435	504	-3356	1113	31
-405	-51	-1961	1265	31
-24	-1241	62	2136	31
-161	-1918	1312	939	31
-206	-1766	1308	-215	31
884	-1081	860	192	31
1262	120	731	-355	31
496	889	212	-61	31
-148	278	-144	-703	31
-418	-59	132	-1429	31
-176	-498	-248	-933	31
-274	-671	-1198	242	31
-188	551	-1002	59	31
330	-9	-57	34	31
393	-659	654	893	31
482	-308	893	-173	31
400	-453	583	801	31
2	-4	401	779	31
140	334	468	4	31
304	722	282	-91	31
-41	1853	6	79	31
-299	3430	353	171	31
-498	3712	422	-567	31
-109	922	104	-572	31
695	-1810	72	-1392	31
-7	-3109	-420	-471	31
-938	-4000	-685	342	31
-460	-2865	-19	124	31
-183	-434	189	77	31
-217	654	93	-304	31
105	185	480	-432	31
152	-111	910	-240	31
-18	119	947	112	31
-125	519	255	191	31
-7	1068	-300	320	31
-318	1271	-692	192	31
-642	1180	-985	116	31
-146	1115	-655	-460	31
86	193	-212	-855	31
-181	-1095	288	-988	31
-433	-1236	632	-220	31
169	-1165	1028	1212	31
603	-937	1236	1293	31
362	-18	440	1921	31
-135	1509	-954	1963	31
-686	2303	-1980	45	31
-117	1266	-2170	-502	31
529	236	-1611	-695	31
378	-22	-347	-698	31
102	-1068	663	-220	31
42	-2164	1057	-385	31
-449	-1610	1289	294	31
-611	-551	895	-39	31
-191	-79	385	-222	31
-64	43	247	139	31
430	301	337	-116	31
120	283	444	-1036	31
-499	49	554	-2183	31
-81	-189	668	-1234	31
478	-584	1	-308	31
808	-330	-406	450	31
492	375	-827	1059	31
-418	1119	-1691	515	31
-484	1843	-1294	678	31
-36	2408	-560	978	31
-257	2679	-575	771	31
472	1508	-370	473	31
748	-700	154	693	31
-166	-2171	423	805	31
-246	-2850	723	133	31
278	-2192	995	-527	31
1008	-1042	792	-1119	31
1049	-767	225	-218	31
730	-323	-150	1491	31
446	-49	-190	707	31
-154	100	458	-1024	31
-537	298	1132	-416	31
-447	182	705	169	31
-638	273	247	-170	31
-1134	362	-426	-562	31
-803	582	-1238	-1442	31
-350	515	-1064	-1201	31
97	265	-891	4	31
753	800	-653	801	31
414	977	127	-322	31
-305	6	753	-1177	31
-304	-329	1220	-382	31
24	-392	1792	-374	31
125	-1030	1249	587	31
178	-431	-325	1456	31
26	369	-1187	547	31
-393	365	-1953	56	31
-651	323	-2351	979	31
-713	-14	-1476	599	31
-16	421	-36	-868	31
648	1467	1345	-271	31
440	696	1737	908	31
-57	-860	1595	1415	31
79	-1359	2013	705	31
1070	-1213	1784	-184	31
1119	-860	503	-849	31
280	-516	-991	-1607	31
-293	220	-1988	-929	31
-478	567	-2497	440	31
-558	702	-3281	831	31
-284	989	-2149	39	31
168	736	9	-333	31
-294	1625	218	133	31
-277	2974	830	390	31
171	1559	1701	234	31
101	-873	1415	-37	31
283	-1773	720	-428	31
80	-2370	358	-1102	31
-708	-1463	486	-925	31
-779	1317	621	206	31
-66	2022	999	-39	31
-174	-34	976	-1346	31
258	-782	536	222	31
600	-862	-89	2067	31
-410	-1802	-584	442	31
-103	-1221	-339	-255	31
-43	-955	-315	1146	31
-292	-1128	-335	612	31
504	-932	-134	-569	31
411	-1002	17	-138	31
432	-411	54	397	31
473	-109	-181	249	31
99	-104	-772	269	31
37	101	-1636	-212	31
-106	471	-1381	-684	31
-433	1381	-956	-1084	31
-701	2185	-543	-1722	31
74	2339	714	-1075	31
247	2229	1355	-179	31
187	794	1016	888	31
472	-870	859	1475	31
-324	-602	995	523	31
-495	-1047	699	559	31
-24	-1623	580	1149	31
154	-1268	581	1280	31
-92	-1330	232	677	31
-12	-757	-120	-1624	31
-66	314	-151	-1246	31
-660	662	-179	1018	31
-212	455	-603	134	31
175	529	-445	-1217	31
37	333	205	-327	31
465	-188	275	-126	31
358	-777	242	-495	31
-320	-367	245	432	31
-415	381	-242	281	31
-121	-692	-783	-234	31
290	-1171	-574	-245	31
489	-538	161	-610	31
505	377	520	-263	31
529	1427	243	-122	31
698	1695	-776	-410	31
573	1872	-1783	1346	31
72	1096	-1696	1882	31
-480	460	-758	-472	31
-885	856	455	-448	31
-510	1271	1144	-337	31
-259	2536	962	-604	31
-460	2128	832	227	31
-80	-622	885	498	31
455	-1492	324	1058	31
250	-1512	12	600	31
-593	-2380	209	242	31
-675	-2107	-101	-159	31
174	-1438	-581	-598	31
614	-548	-539	-225	31
542	468	-189	-900	31
459	179	168	-1430	31
347	-488	472	-1073	31
-167	-1076	264	-669	31
-511	-1028	-477	-270	31
-713	601	-674	486	31
-715	2031	157	1851	31
-129	1246	669	1244	31
77	64	279	76	31
220	-754	234	-3	31
866	-1894	118	280	31
829	-1713	-420	1404	31
28	-847	-248	694	31
-73	-217	298	261	31
-9	362	403	492	31
-172	706	-97	-308	31
-339	660	-807	-538	31
-176	367	-821	-227	31
583	263	-473	-482	31
388	367	-302	-1319	31
-132	599	704	-1033	31
-7	501	1376	-1199	31
228	1028	409	-1410	31
149	1373	-385	-148	31
-211	239	-713	1891	31
-21	102	-1328	2719	31
71	659	-1356	1562	31
-201	409	-446	-231	31
-3	-153	325	-1129	31
73	-719	298	-644	31
-223	270	628	-1134	31
-315	1528	1017	-765	31
-254	787	656	-68	31
-116	-631	649	350	31
197	-2642	390	431	31
525	-3567	-61	-311	31
171	-2130	195	-486	31
-255	-979	610	-1442	31
-375	-400	862	-1181	31
-864	553	490	-227	31
-918	2187	-365	21	31
-593	2465	-1430	1668	31
-359	641	-2291	2578	31
-15	-361	-1102	1075	31
67	-957	551	114	31
572	-719	911	-524	31
1051	829	1142	-1038	31
706	1206	1117	-159	31
79	2000	742	1118	31
-1084	2468	224	1698	31
-998	-17	-100	1543	31
725	-1552	-249	1783	31
962	-1634	-468	578	31
364	-2268	-519	-1429	31
276	-1462	-151	-2255	31
306	-74	17	-2524	31
440	-209	-122	-1403	31
-199	-869	107	-993	31
-447	-179	16	-1225	31
-544	679	118	-384	31
-1027	850	939	-854	31
-340	1074	1488	-89	31
367	117	1079	1730	31
431	-680	-112	2126	31
582	-190	-1338	2229	31
726	-67	-2444	915	31
527	335	-2552	-345	31
382	1012	-937	-285	31
339	734	412	-425	31
80	-26	681	-593	31
277	-260	981	-129	31
621	79	199	297	31
409	940	-749	-879	31
-115	2096	-595	-1660	31
-212	1914	59	-279	31
-291	-109	841	597	31
-592	-1869	931	-97	31
-252	-2221	1139	-746	31
-163	-1646	796	929	31
-242	145	145	2028	31
-191	1109	343	1105	31
-505	641	213	575	31
-204	243	-567	-325	31
78	-526	-885	1634	31
-125	-167	-1042	2397	31
-144	1159	-1577	-711	31
-195	1198	-1324	-1660	31
-217	149	-498	-1560	31
-127	-554	209	-1334	31
114	-1373	494	-694	31
94	-1591	711	-639	31
51	359	726	-290	31
-354	919	459	-103	31
-606	-724	570	-718	31
164	-1632	540	-55	31
10	-1116	455	566	31
-176	-661	297	461	31
-52	-556	411	279	31
47	363	1835	-608	31
510	840	2559	-807	31
416	571	1124	-637	31
167	451	-764	792	31
-427	96	-3038	3036	31
-139	-559	-4000	2050	31
70	-174	-2489	-1128	31
-229	1308	-192	-846	31
304	1987	979	-13	31
227	1075	877	-994	31
202	29	734	-437	31
91	-735	696	32	31
-166	-1640	285	853	31
140	-875	98	665	31
198	1000	217	-403	31
210	971	572	-451	31
-69	-137	1013	-622	31
-521	-494	1602	-269	31
-686	-1297	1981	370	31
-163	-1411	1586	824	31
681	-254	236	105	31
235	457	-1443	88	31
-126	959	-2419	542	31
247	870	-2204	-335	31
364	424	-860	-404	31
135	56	261	-150	31
44	-722	1089	-322	31
344	-753	914	-504	31
-27	525	-966	-1068	31
-476	1433	-1829	-1600	31
-365	1175	-1400	-1643	31
-37	377	-1224	-702	31
420	-731	-876	816	31
-12	-1398	-57	1793	31
-430	-868	595	2632	31
139	-204	668	1933	31
-468	147	448	-95	31
-776	269	896	-850	31
6	137	1172	434	31
31	147	412	800	31
400	138	235	-1653	31
760	648	215	-2544	31
524	1741	419	-494	31
509	2277	426	1101	31
667	2075	-1338	2226	31
469	823	-1885	1911	31
-31	-1103	-712	512	31
-181	-1812	286	1018	31
39	-2403	1047	190	31
-229	-2589	786	-590	31
-267	-1536	370	-47	31
-389	-1279	-16	-803	31
-1118	-677	-500	-716	31
-652	330	-79	-315	31
-6	491	707	-1191	31
44	589	1603	-915	31
-309	494	1318	364	31
-524	410	21	832	31
24	418	-663	632	31
388	254	-954	-87	31
1012	274	-761	-804	31
593	277	-488	-752	31
-530	585	-173	-325	31
-806	1967	149	-375	31
-271	2702	350	172	31
811	1228	300	-232	31
627	83	9	-957	31
428	-826	182	385	31
351	-2425	-20	591	31
-60	-2358	-264	-279	31
-29	-1501	-21	262	31
-291	-890	96	307	31
-169	-107	81	-223	31
-131	267	203	-239	31
-124	841	607	-363	31
-102	1772	443	-813	31
59	1360	169	-841	31
548	759	89	-733	31
574	766	-285	-277	31
421	-822	-822	1748	31
-127	-2183	-893	2095	31
-56	-1885	-205	-131	31
-422	-879	-79	-1036	31
-699	91	-140	-134	31
313	805	3	589	31
563	1623	25	1043	31
204	1008	276	1565	31
-228	-69	274	725	31
-538	-597	290	451	31
-1000	-1319	278	645	31
-1041	-1213	325	507	31
-297	-415	932	-139	31
415	34	1265	-1719	31
255	269	448	-453	31
59	595	-563	-445	31
437	391	-741	-1343	31
74	178	-759	-713	31
267	435	-645	-239	31
547	588	-573	907	31
374	476	-713	320	31
372	-66	-372	276	31
-106	-134	-106	767	31
-188	59	-36	-179	31
-21	579	199	-176	31
181	1612	-330	826	31
31	752	-1002	1246	31
-558	-957	-935	-20	31
-536	-986	-356	-1056	31
-174	-1056	681	-704	31
6	-1317	1169	-912	31
-85	-708	1289	-1039	31
-362	-913	1526	-350	31
-244	-911	1243	325	31
-423	825	806	517	31
-779	2036	29	603	31
-323	1246	-1255	407	31
26	253	-2038	-292	31
533	46	-2296	181	31
777	-651	-1598	-432	31
675	-1052	124	-981	31
792	-674	1439	-669	31
513	-207	1355	-1068	31
142	451	491	-605	31
-142	910	-325	121	31
231	1738	-990	1352	31
165	2035	-542	1296	31
-575	945	318	1007	31
-488	882	685	963	31
-83	609	837	262	31
-205	-1336	704	242	31
-727	-1894	154	-144	31
79	-1813	-352	-28	31
909	-1961	-424	-637	31
381	-1083	-157	-1065	31
383	-195	189	-141	31
334	471	556	414	31
-9	618	709	404	31
-367	209	544	-240	31
-121	-463	626	-171	31
26	-944	-124	568	31
-707	-123	-686	25	31
-285	1535	89	-1827	31
146	1873	174	-2513	31
141	427	-570	-987	31
398	-488	-1143	1487	31
182	-691	-861	3022	31
-91	-342	-94	1623	31
-367	966	388	-132	31
-683	2298	1162	-855	31
-691	1964	1642	-1218	31
-453	-466	1332	-805	31
-254	-2205	528	-156	31
-121	-2599	-1134	1855	31
-9	-1939	-2390	2917	31
447	-423	-1805	2188	31
746	238	-349	-123	31
394	343	523	-1841	31
355	776	622	-943	31
292	805	574	-984	31
-166	611	267	-1449	31
-148	1018	-175	-615	31
221	772	-326	1227	31
122	186	-154	45	31
-508	329	69	-1211	31
-235	305	243	-101	31
473	-276	951	-181	31
285	-749	1371	796	31
-197	-970	921	730	31
-437	-1347	43	-378	31
-432	-1215	-951	73	31
-268	-772	-1542	181	31
442	-534	-1767	-547	31
580	-177	-1277	-543	31
-7	189	-328	-885	31
62	435	86	-239	31
67	621	148	1385	31
-483	717	347	1242	31
-1330	644	683	502	31
-1144	440	1109	-701	31
173	175	1227	-503	31
653	-18	1235	-146	31
248	-126	901	16	31
47	174	182	461	31
456	615	493	-725	31
933	1229	922	-1314	31
1107	1964	458	-323	31
962	877	-69	385	31
650	-889	-783	172	31
398	-1614	-1065	-195	31
149	-1990	-480	-197	31
112	-1284	112	653	31
-16	431	64	1349	31
-334	1744	-343	1227	31
-175	1228	-741	921	31
169	236	-2014	402	31
-236	-421	-2575	-1069	31
-610	-1828	-1672	-319	31
-901	-1484	-801	423	31
-1445	-26	390	-2006	31
-1092	694	1120	-900	31
-493	1411	985	1458	31
518	1635	484	1397	31
1125	1592	-214	381	31
743	1435	-64	-432	31
362	729	1047	-264	31
-280	-838	2103	-467	31
-281	-2039	1752	-407	31
86	-2092	609	-569	31
304	-1826	-640	12	31
61	-1183	-1972	1497	31
-61	-174	-2094	1856	31
104	607	-1382	-233	31
248	864	-184	-1743	31
650	791	619	-442	31
-393	309	340	-305	31
-981	-67	589	-755	31
-170	-636	509	-947	31
-8	-641	147	-780	31
130	784	432	265	31
-4	1673	875	324	31
51	1762	1500	-264	31
261	849	1551	-450	31
-27	-869	1157	-349	31
114	-1807	614	-21	31
377	-2415	330	936	31
47	-2385	-212	1304	31
-769	-980	-1100	-428	31
-919	1104	-1305	-2307	31
-1212	2312	-1478	-1118	31
-1418	1308	-1583	1514	31
-552	2	-913	1522	31
-305	-890	-76	1034	31
264	-1587	-144	1730	31
1145	-709	-136	1495	31
1071	141	62	913	31
1081	301	338	75	31
964	488	812	-557	31
682	581	801	-738	31
753	525	474	-886	31
345	178	136	-1058	31
10	124	270	-1000	31
447	253	737	-726	31
653	458	1059	-782	31
43	678	650	430	31
-818	147	24	1499	31
-833	-273	-525	470	31
-816	124	-604	-197	31
-769	-21	-232	370	31
-402	-122	-579	305	31
-375	333	-1087	-34	31
98	94	-1393	-677	31
180	-511	-1270	141	31
-173	-498	-732	201	31
19	-119	195	-806	31
254	-33	1215	29	31
266	99	1621	-497	31
127	592	1696	-605	31
-106	1330	1764	-861	31
-294	1419	1835	-1348	31
92	490	2176	-1017	31
511	-508	2983	-950	31
343	-1623	1987	-468	31
129	-1729	-1221	628	31
-166	-513	-3922	2700	31
-231	671	-4000	3172	31
-86	1240	-4000	2153	31
77	555	-4000	1167	31
271	56	-1503	444	31
469	-16	142	-64	31
-5	44	696	-311	31
-136	409	1024	-316	31
565	339	1370	-373	31
24	-24	1174	-378	31
-14	-988	1189	-583	31
184	-1000	1050	-377	31
14	-1131	661	-314	31
16	-1801	630	-510	31
-4	-819	745	-547	31
266	362	846	-450	31
76	1075	1079	-129	31
316	974	1547	162	31
280	307	1516	168	31
-82	-548	887	121	31
-134	-403	124	97	31
-267	421	-789	-640	31
-419	-95	-1277	-1090	31
-471	-54	-896	-106	31
-830	-163	-442	289	31
-1479	-618	-394	15	31
-904	364	-551	-493	31
52	2159	-400	-875	31
633	3152	247	235	31
633	1750	1228	595	31
390	415	1298	663	31
396	-322	743	849	31
255	-1319	-22	512	31
-46	-1670	-1084	-194	31
-157	-2303	-985	26	31
108	-2242	-1024	176	31
-375	-1404	-788	-1362	31
-613	-651	-314	-657	31
-293	-41	-383	583	31
141	109	217	752	31
232	724	984	721	31
-116	1723	1358	603	31
-16	1944	1165	556	31
-620	473	478	-429	31
-961	-1163	-721	-997	31
-47	-1487	-1624	-1229	31
429	-1211	-1548	-1665	31
346	-543	-142	-1921	31
884	264	1138	-220	31
918	999	1431	3010	31
265	1418	1384	4000	31
480	1299	557	2546	31
489	687	-413	211	31
-200	-10	-2084	-79	31
-307	-288	-3035	-1358	31
-177	-367	-2027	-2276	31
-207	164	-708	-1632	31
-102	1052	440	-1157	31
-146	1650	1508	-1104	31
65	1335	1927	-199	31
204	-330	1375	984	31
102	-1037	523	1124	31
129	-1063	-90	265	31
261	-1168	234	-229	31
74	-411	922	198	31
-45	-224	969	-151	31
502	-563	533	-585	31
176	-711	217	84	31
-270	-528	-484	1627	31
-176	-1	-1146	-137	31
260	280	-775	-1309	31
415	200	-590	1736	31
-329	9	-508	1049	31
-233	-293	-664	-932	31
-341	-293	-938	-858	31
-530	265	-325	-589	31
-352	440	10	203	31
-270	586	293	424	31
-137	1259	1052	-373	31
-440	1758	1102	-584	31
161	1303	586	109	31
517	-49	-327	-157	31
269	-1030	-1021	-303	31
-200	-904	-884	74	31
-1465	887	-333	174	31
-1205	3730	575	73	31
199	4000	1814	540	31
843	2040	2254	1159	31
949	-2548	1182	930	31
627	-4000	-160	226	31
155	-4000	-1716	552	31
-167	-3587	-2893	789	31
196	-1584	-2636	-1224	31
769	-499	-1188	-1876	31
299	76	204	-453	31
-81	407	833	145	31
50	395	1307	-22	31
-72	455	1000	-512	31
-71	460	645	-1143	31
217	802	210	-1479	31
555	1022	-303	-287	31
508	884	-1	1411	31
-548	762	518	1044	31
-764	325	594	528	31
315	146	388	558	31
158	440	369	376	31
-66	794	-156	807	31
-41	1542	-434	407	31
-339	2583	-221	-594	31
-437	1961	124	-1065	31
-480	-342	771	-1025	31
-474	-1969	1320	-370	31
-445	-2892	1405	-279	31
-29	-2435	1208	-122	31
-333	-645	572	102	31
-553	10	-583	994	31
-306	369	-1052	1742	31
44	700	-1054	979	31
676	629	-1170	380	31
270	1037	-1328	-745	31
255	1552	-1026	-530	31
688	1753	-1060	84	31
958	915	-1003	-181	31
944	-618	-239	-164	31
502	-1387	-152	-493	31
517	258	-54	-605	31
28	2742	-51	-1119	31
-672	1665	-94	-1124	31
-993	-779	292	-618	31
-703	-2419	567	-380	31
-290	-4000	510	542	31
8	-3024	204	-190	31
500	-536	753	-1630	31
554	777	1357	596	31
503	1457	980	2753	31
270	889	701	2688	31
-136	849	550	1189	31
-399	68	-18	89	31
-444	-1158	-269	177	31
-562	-809	301	-55	31
-381	-724	247	-242	31
121	-426	-668	-1248	31
-130	197	-262	-998	31
-282	-98	107	-12	31
210	-418	-380	900	31
-116	-234	87	419	31
-537	191	321	-939	31
290	711	-189	-112	31
899	943	-1873	1498	31
898	838	-2749	2113	31
217	622	-1563	-206	31
-264	290	-786	-2283	31
-196	-113	127	-2251	31
-958	-247	967	-1791	31
-1194	16	1110	-1034	31
-707	223	1064	490	31
-179	330	533	2402	31
-62	573	504	2150	31
-36	706	649	345	31
482	525	323	-301	31
827	411	302	445	31
1154	394	178	-89	31
709	12	-344	-766	31
181	-253	-592	194	31
97	654	-235	422	31
-117	2508	67	-593	31
-134	3341	-96	-811	31
-18	1725	-45	-219	31
495	-2040	61	71	31
428	-4000	-146	1512	31
148	-4000	-365	1301	31
327	-2132	20	-1169	31
17	220	267	-1662	31
-611	648	297	-1241	31
-959	257	595	-835	31
-397	343	292	-330	31
-279	682	355	-199	31
-443	774	588	516	31
81	558	395	902	31
77	573	500	126	31
430	536	868	449	31
514	669	531	1126	31
258	1455	-690	438	31
167	912	-1579	-118	31
-265	-988	-1794	-272	31
-350	-1934	-1457	-1144	31
-862	-2127	-471	-1810	31
-667	-1806	742	-436	31
166	-714	1464	-182	31
-27	358	1496	-29	31
156	1058	741	870	31
661	953	-134	621	31
407	405	-390	626	31
-56	97	-711	1091	31
-62	-435	-1359	1236	31
61	-1014	-856	-795	31
-299	-680	-50	-452	31
-680	-136	-42	578	31
-603	367	285	-196	31
-332	435	882	147	31
201	160	1402	-107	31
860	596	947	1003	31
535	751	144	1803	31
22	1120	-523	810	31
171	1411	-1090	-63	31
271	990	-1028	-667	31
542	33	-647	-1632	31
203	-1432	-282	-1584	31
-396	-1738	-55	-227	31
-38	-958	335	285	31
304	-94	211	274	31
174	299	223	-213	31
-99	263	364	-406	31
-189	27	245	-649	31
-670	-135	277	-881	31
-1561	74	504	-611	31
-825	233	912	-363	31
791	272	865	-136	31
1129	214	1059	-254	31
839	200	974	-189	31
595	221	146	-516	31
219	353	-728	-588	31
-177	387	-1065	755	31
-364	259	-478	2482	31
-596	357	-265	2290	31
-245	392	-265	556	31
322	126	-322	-576	31
-332	-185	-881	-1248	31
-259	-3	-484	171	31
111	408	806	783	31
115	1071	1233	-125	31
405	1630	465	67	31
125	237	-172	-334	31
98	-1180	-1484	1217	31
214	-1291	-2913	2351	31
182	-1511	-2849	307	31
58	-938	-1923	-998	31
-50	-421	-465	-406	31
-550	441	506	-77	31
-758	2599	947	-262	31
-134	2973	830	-234	31
349	1470	460	-390	31
665	-342	352	145	31
397	-3235	526	9	31
-133	-4000	892	-188	31
-753	-2937	928	-209	31
-803	-1874	1045	-1106	31
-475	-1413	1215	-1503	31
-142	-265	1496	-1339	31
580	715	1521	-741	31
722	1135	1132	-141	31
435	1507	332	1275	31
-340	1606	-1179	1808	31
-1002	691	-1453	-359	31
-950	480	-254	-1136	31
-645	499	46	112	31
4	84	-528	743	31
1131	202	-1190	762	31
1250	254	-2019	723	31
345	448	-1598	868	31
657	305	-217	-429	31
491	-214	679	-1044	31
-1	-594	1069	-573	31
275	-887	1123	-584	31
-30	-295	1036	96	31
24	707	779	206	31
24	1094	453	0	31
-429	1258	40	-470	31
-608	1741	-161	99	31
-686	1357	-11	1635	31
-567	63	193	1384	31
199	-570	4	-172	31
737	-557	-10	-530	31
285	-50	197	-475	31
274	195	-138	-405	31
5	-231	179	763	31
-283	-1393	388	915	31
347	-2069	-7	-172	31
202	-1086	-102	-742	31
-67	-119	-515	-377	31
238	1181	-708	-787	31
57	1985	-292	-1316	31
149	1136	-440	-532	31
359	739	-1027	123	31
-113	561	-857	-118	31
-141	-937	-162	-12	31
-61	-2363	287	1199	31
-365	-2978	827	1230	31
-858	-2988	1082	284	31
-886	-1192	185	-591	31
205	533	-478	-692	31
472	907	-114	389	31
164	822	314	780	31
114	989	666	564	31
-257	1490	609	1006	31
87	1902	305	1186	31
449	2072	438	-37	31
39	255	114	-1046	31
-197	-1570	-194	-1149	31
-68	-1642	99	-333	31
267	-1213	-560	475	31
42	360	-1380	-299	31
-622	1903	-1034	-1386	31
-513	1220	-587	-1301	31
-208	-418	-475	-769	31
-127	-1143	-328	46	31
117	-1554	-102	465	31
491	-1109	589	242	31
-189	-465	1110	365	31
-538	-312	820	-135	31
277	152	419	-770	31
52	41	196	-1352	31
-109	56	-341	-382	31
156	418	-1232	2669	31
284	545	-1100	2158	31
398	747	139	994	31
467	711	1365	1724	31
637	729	1461	-365	31
475	578	342	-860	31
-170	140	-714	-197	31
-485	461	-1014	330	31
-109	917	-718	1018	31
-82	184	-388	-455	31
62	-661	44	-848	31
234	-722	76	-753	31
-129	-572	352	-150	31
-383	177	1125	291	31
-376	1541	1372	-382	31
-380	2631	1366	-480	31
-193	2020	1213	-305	31
-46	-600	466	-539	31
-596	-1846	-278	-441	31
-869	-1841	-743	121	31
-215	-1836	-1810	568	31
761	-540	-2033	804	31
916	-420	-1193	171	31
320	-834	-740	-242	31
-98	-176	-654	-278	31
-331	-197	-110	-112	31
-245	-708	312	-74	31
59	-969	380	-241	31
423	-665	1095	95	31
718	21	1253	687	31
673	747	1002	914	31
0	667	322	720	31
-322	596	-230	213	31
53	1686	-323	-1342	31
325	2692	-530	-2003	31
390	2773	7	-1116	31
-403	1027	330	-819	31
-802	-559	402	-1330	31
-490	-403	472	-547	31
-96	-21	237	1047	31
347	275	-182	2012	31
194	-286	-749	2093	31
87	-1121	-582	455	31
-98	-1546	-97	788	31
112	-2052	-188	1933	31
108	-2522	-408	-361	31
98	-2155	-30	-1798	31
198	-1115	610	-1743	31
-1324	-494	620	-2149	31
-1561	135	875	-1354	31
39	474	294	1726	31
721	752	-1398	3491	31
758	1051	-1739	1162	31
440	1068	-999	92	31
314	1291	-82	90	31
309	862	605	-733	31
192	144	1516	-948	31
341	-448	1706	-820	31
292	-755	803	-168	31
111	-530	170	-127	31
-363	-364	-605	-7	31
-515	19	-1070	157	31
-811	347	-555	540	31
-1449	247	-207	938	31
-157	291	-335	402	31
1159	488	501	-73	31
519	593	1091	-954	31
119	872	955	-1556	31
377	788	943	-908	31
461	14	381	248	31
205	-391	-514	1417	31
2	-443	-1366	1771	31
-185	49	-1466	633	31
-832	1624	-1027	-618	31
-615	2183	-489	-1170	31
116	620	-179	-957	31
221	-748	23	-52	31
382	-1600	457	196	31
245	-1914	342	-120	31
-1	-864	-127	-337	31
-72	-187	-398	-447	31
54	-126	-446	-863	31
262	-341	-199	-1445	31
495	-513	525	-1330	31
578	-179	1455	-525	31
324	-62	1841	1037	31
-14	144	1167	2745	31
-272	350	106	2051	31
-3	463	-593	926	31
-211	1050	-673	1119	31
-428	2543	-470	347	31
-6	3056	-693	-4	31
-430	948	-1109	-186	31
-838	-461	-1049	-223	31
-507	-1592	-589	557	31
-423	-3646	-66	63	31
9	-3336	914	-153	31
663	-1556	1354	-93	31
573	-574	849	-484	31
583	-106	120	-502	31
339	381	-370	-536	31
-137	1331	-133	-105	31
-94	2757	-126	-131	31
113	2644	-573	290	31
391	713	-693	443	31
-364	-827	-610	-1236	31
-731	-2327	-381	-1515	31
134	-2681	277	-1547	31
169	-1313	934	-848	31
-209	-97	1040	760	31
-119	491	906	631	31
118	-144	907	809	31
253	-390	1218	409	31
-21	244	1281	-173	31
-766	679	250	-234	31
-792	942	-1346	-281	31
-454	792	-2399	504	31
-90	503	-2198	1274	31
701	318	-1376	1071	31
788	738	-653	302	31
452	558	-49	-9	31
137	-193	325	-819	31
122	-348	741	-1145	31
-16	-759	919	-604	31
62	-97	1079	-33	31
681	1597	1195	-28	31
321	2196	1029	-337	31
-325	1295	714	192	31
-919	-317	314	585	31
-399	-1615	-13	856	31
543	-2310	-525	827	31
147	-1424	-894	-78	31
259	-135	-1031	-1038	31
497	41	-1141	-1032	31
208	116	-1175	-441	31
-19	28	-649	-287	31
-277	-183	605	-881	31
-359	-112	1511	-359	31
-2	425	1753	557	31
317	1227	1443	1224	31
16	1033	258	2782	31
-106	104	-525	1972	31
74	-820	-280	-941	31
84	-1166	-196	-2514	31
132	-313	-263	-577	31
1	322	-452	2221	31
-248	285	-954	1509	31
-227	134	-1187	-121	31
214	6	-799	-578	31
162	-19	-464	-61	31
-383	-10	-409	162	31
-410	139	22	-146	31
-444	-35	585	-196	31
-219	-199	895	-497	31
-194	61	944	-231	31
-169	252	798	-123	31
213	32	282	-51	31
205	-384	-244	-638	31
321	-129	-192	-1045	31
-279	839	5	-564	31
-1046	1189	-21	-585	31
-823	377	-350	130	31
-491	-108	-993	239	31
-147	-289	-993	97	31
540	-772	-4	596	31
359	-586	1085	459	31
167	180	1273	-102	31
290	1176	367	-640	31
121	1564	-269	-439	31
1157	511	-777	319	31
746	-1196	-1341	1163	31
-502	-2423	-550	443	31
388	-1464	673	-565	31
531	1547	455	-747	31
255	2030	275	-392	31
29	-9	861	1187	31
-803	-1287	551	890	31
-581	-2314	-104	-25	31
-288	-1964	-543	508	31
-104	-367	-1027	961	31
297	569	-944	1051	31
498	717	-503	293	31
576	955	59	-652	31
406	1184	816	-1186	31
245	1142	1130	-1594	31
-207	2096	819	-703	31
11	2294	501	264	31
289	657	-42	-7	31
-210	-1004	-886	22	31
-22	-2162	-817	-136	31
197	-2430	-334	-821	31
-164	-1706	77	-527	31
-660	-460	804	710	31
-552	635	1057	1259	31
-24	120	890	810	31
172	-1071	665	465	31
-23	-933	-14	-510	31
-397	-217	-438	-1544	31
-254	15	-568	-914	31
26	100	-738	-138	31
59	325	-257	-258	31
193	471	510	435	31
-178	607	991	576	31
-302	619	1089	-21	31
518	484	684	249	31
165	467	-237	4	31
-62	253	-816	-259	31
430	-85	-427	-199	31
419	-152	-67	95	31
517	-159	-194	955	31
-46	59	-557	1482	31
-563	424	-799	1436	31
-562	589	-989	211	31
-340	888	-823	-856	31
-46	1349	-67	-1247	31
407	1419	388	-1975	31
458	9	896	-1097	31
-132	-1208	958	-466	31
-167	-1385	-77	-226	31
-139	-1924	-773	828	31
-455	-1125	-753	1048	31
-897	-135	-485	187	31
-843	-66	252	-1019	31
-402	149	1410	-1820	31
-96	127	2339	-803	31
9	126	2088	1274	31
201	-25	812	1971	31
668	-31	-864	2500	31
477	6	-2679	1938	31
101	-157	-3191	1379	31
197	22	-1661	647	31
500	835	-32	-840	31
678	1764	751	-963	31
465	1793	1282	-1094	31
455	1269	1103	-728	31
388	1427	767	-395	31
6	1731	121	94	31
-74	747	-748	108	31
99	-355	-1017	-1176	31
161	-2253	-1333	-1778	31
302	-4000	-1380	-728	31
228	-2992	-1108	1261	31
-288	78	-564	2194	31
-360	1840	-204	1489	31
-72	1577	366	675	31
137	-393	955	68	31
-110	-1941	896	-560	31
-352	-2623	938	-515	31
-292	-2046	740	-730	31
-572	-707	752	-906	31
-277	396	1166	-1353	31
-55	1426	2293	-1489	31
-71	1767	3220	-843	31
325	859	2909	525	31
326	-87	1558	1209	31
210	-89	-1164	288	31
64	-172	-3510	1175	31
-391	-252	-4000	1487	31
-1163	-129	-4000	675	31
-1037	418	-2475	-273	31
9	1156	-184	-1102	31
230	1151	741	-122	31
334	865	882	195	31
721	171	1067	212	31
327	-134	1368	-690	31
-91	307	1848	-682	31
58	756	1602	132	31
138	714	723	-622	31
-144	-11	61	21	31
-47	-28	-688	1196	31
117	469	-834	279	31
-16	335	-463	-1081	31
79	-55	25	264	31
-825	16	264	166	31
-1100	28	153	-898	31
-235	-526	330	-313	31
-134	-904	651	-269	31
84	-641	846	33	31
422	-411	695	233	31
913	174	308	-82	31
888	1391	-312	34	31
-106	753	-792	557	31
-321	-875	-708	-176	31
125	-1731	-270	-124	31
262	-2381	208	-216	31
367	-1707	404	-399	31
379	-278	488	298	31
-149	466	191	146	31
-575	691	-428	812	31
-716	468	-764	409	31
-608	-131	-776	-169	31
828	-262	-535	-445	31
1565	39	135	-237	31
549	106	674	1151	31
6	1007	432	161	31
-51	1723	626	-711	31
109	614	568	689	31
299	-485	104	703	31
93	-1021	348	-449	31
-240	-1573	319	-238	31
-227	-925	274	-112	31
-224	191	-179	227	31
-397	259	-531	826	31
-247	318	106	294	31
-218	433	139	-357	31
-326	229	-659	-169	31
-348	303	-1485	-144	31
-225	272	-2075	-579	31
-40	213	-1726	-533	31
-79	235	-1064	-946	31
-124	54	-1027	-295	31
24	-283	-270	618	31
128	-107	910	187	31
47	584	1406	480	31
139	607	1358	998	31
133	532	557	996	31
-181	790	58	246	31
-176	1553	-49	-575	31
296	2117	-161	-367	31
323	620	268	-1009	31
-232	-510	1006	-622	31
-224	-289	1303	643	31
83	-10	849	157	31
-31	748	385	-135	31
510	-26	-315	191	31
942	-1662	-972	446	31
453	-2224	-832	76	31
225	-2754	-22	-320	31
-255	-2548	929	-364	31
-583	-968	676	317	31
-533	818	-257	1457	31
-463	1456	-811	937	31
-87	559	-1095	-673	31
289	-92	-751	-884	31
547	98	306	-521	31
193	-332	656	-460	31
-352	-116	301	-450	31
-677	789	167	-585	31
-836	571	-308	92	31
-593	122	-296	199	31
-106	-46	219	-236	31
72	-393	1046	-707	31
374	-486	1954	-898	31
568	-215	1789	-865	31
-34	-73	776	-1177	31
104	-61	-771	516	31
220	-204	-1869	2898	31
339	-126	-2526	2321	31
214	360	-2251	714	31
-300	1115	-1102	-537	31
-69	1255	-61	-610	31
42	486	704	-122	31
307	220	415	-432	31
209	-173	426	162	31
-113	-714	713	187	31
-380	-841	672	166	31
146	-1077	892	247	31
809	-571	994	334	31
644	435	861	385	31
117	1056	954	90	31
-530	1258	1142	135	31
-312	994	115	-277	31
-380	332	-734	-600	31
-200	-259	-912	-547	31
-107	-282	-1019	-284	31
-66	-125	-427	-1101	31
348	182	23	-1918	31
101	529	2	-1817	31
172	486	-353	-1227	31
64	32	-425	1436	31
92	-659	250	2966	31
205	-833	887	1001	31
-2	-371	724	-500	31
-179	-119	-66	-102	31
-87	-27	-1278	196	31
-89	-40	-1800	119	31
-637	-252	-1007	620	31
-906	-225	-784	521	31
-916	34	-664	242	31
-357	451	73	591	31
282	423	1049	-38	31
675	160	2609	-611	31
671	2	2053	-832	31
507	-304	540	-552	31
540	-202	-194	1020	31
253	-184	-1375	1210	31
-176	-198	-1508	940	31
-644	-46	-540	741	31
-361	-227	193	-959	31
-54	-202	-708	-324	31
-292	-40	-1317	391	31
-610	-88	-756	447	31
-72	-6	-531	782	31
781	189	-269	-689	31
522	162	120	-1282	31
685	41	658	-1228	31
686	18	846	-938	31
320	348	835	-870	31
219	1000	618	-408	31
107	855	692	863	31
147	32	1029	1489	31
-71	-390	1068	1187	31
-24	-760	703	569	31
-890	-850	-76	-375	31
-1087	-325	-662	-1882	31
741	-219	-1424	-2065	31
659	-445	-1446	-1629	31
-966	-397	-284	-399	31
-650	-375	811	106	31
84	-483	1084	951	31
-80	-215	854	2297	31
-262	490	819	530	31
-139	1080	560	-41	31
127	1375	-31	174	31
-254	435	-645	751	31
-180	-894	-77	1166	31
157	-643	523	-235	31
-103	156	-396	-482	31
-502	945	-973	-400	31
-657	1814	-1320	-441	31
-176	1603	-1326	769	31
695	598	-754	1728	31
618	483	-336	831	31
559	89	-14	-479	31
1108	-823	37	-1247	31
757	-682	570	-1086	31
229	-804	692	37	31
-161	-1165	508	139	31
-119	-807	634	-408	31
-840	-1090	633	-17	31
-1008	-1873	656	252	31
247	-1333	327	-181	31
443	-581	87	-515	31
412	-298	180	-448	31
-145	19	613	-278	31
-178	345	1171	-378	31
-56	797	1241	-72	31
-331	979	328	429	31
54	939	-811	-345	31
-146	352	-1559	-900	31
558	-297	-2052	-999	31
941	-594	-1481	-1001	31
-144	-298	179	53	31
-502	369	1489	1529	31
267	527	1543	2039	31
626	503	486	1057	31
281	228	-1118	700	31
194	132	-1886	865	31
-125	262	-2027	933	31
-564	385	-1637	1003	31
-610	500	-139	14	31
44	387	1356	-116	31
47	298	1588	10	31
-97	8	816	-896	31
242	-172	335	-603	31
-51	-99	-243	-119	31
-254	-205	-924	-353	31
-280	-441	-1009	-840	31
15	-321	-247	-897	31
113	-45	873	-961	31
310	-12	882	-949	31
134	307	892	-445	31
-334	484	1291	-235	31
-43	275	857	-450	31
-300	89	137	-28	31
-359	11	-744	1253	31
-235	-109	-1430	1720	31
1	-356	-1011	1229	31
388	-247	283	11	31
537	-118	1440	242	31
632	-121	1149	412	31
172	4	-205	-454	31
-588	19	-608	-734	31
-743	-54	-89	-1415	31
-272	-44	184	-1676	31
-290	219	378	-787	31
-159	298	381	1881	31
-443	246	-793	3338	31
-645	1035	-2221	183	31
-62	1215	-1733	-1339	31
41	148	182	354	31
608	-390	1100	54	31
312	-761	826	249	31
-159	-1209	305	-954	31
575	-1071	-322	-1742	31
207	-365	-447	809	31
171	-39	-397	1145	31
407	61	5	-690	31
190	1607	869	-605	31
-385	2494	869	387	31
-1698	863	290	33	31
-1232	-1372	-67	503	31
171	-2596	-511	-42	31
1141	-2139	-591	-284	31
1601	-796	-372	319	31
934	392	-288	370	31
377	1066	452	38	31
136	1447	867	-502	31
122	965	750	-155	31
375	-353	646	-385	31
458	-1064	136	-21	31
329	-1519	-386	117	31
-79	-1013	-744	84	31
387	35	-245	730	31
453	17	277	505	31
-548	-27	107	-521	31
-954	169	190	-973	31
-663	223	289	-285	31
-1009	102	456	277	31
-1793	-20	819	996	31
-1537	232	805	1155	31
-1967	518	1075	785	31
-463	508	1516	395	31
1119	654	493	-773	31
207	832	-586	-1043	31
1405	440	-1196	525	31
1650	164	-2659	1459	31
1144	-179	-3482	-801	31
1142	-496	-2735	-3010	31
344	-144	-882	-1255	31
334	-12	227	-192	31
403	-146	633	-272	31
92	-20	1134	102	31
240	135	957	-350	31
470	-67	889	-125	31
-626	61	826	-1010	31
-718	854	869	-1679	31
-33	1648	741	-550	31
-212	1197	446	716	31
-222	-319	48	2157	31
-480	-1019	-571	2595	31
-9	-1416	-402	1672	31
347	-1051	-52	1396	31
319	-187	-181	1045	31
605	-297	5	585	31
69	-297	311	599	31
-198	224	566	-26	31
-186	603	242	-537	31
-496	653	-1145	-723	31
-398	525	-1309	-1021	31
-215	-410	-475	-1177	31
104	-1023	231	-763	31
254	-824	672	-585	31
-446	-578	599	-156	31
-666	64	894	1006	31
-75	531	952	999	31
6	805	266	-316	31
-112	483	-409	-462	31
-217	-190	-901	873	31
-562	-403	-939	39	31
-340	-346	-258	-1153	31
90	-139	599	-350	31
-190	623	1579	-477	31
-446	1054	1754	47	31
-109	268	679	237	31
-537	-54	-874	-745	31
-1613	-702	-2619	454	31
-1898	-1437	-2851	1264	31
-998	-716	-1135	553	31
1089	-127	131	-803	31
1665	243	382	-961	31
1801	685	418	422	31
2546	455	18	764	31
1750	-192	-101	-134	31
751	-382	219	-15	31
-729	91	757	243	31
-215	741	1194	-598	31
291	1206	1179	-311	31
-315	1177	1190	-422	31
916	763	1223	-37	31
976	-19	1311	839	31
72	-882	859	828	31
-786	-1288	-195	-66	31
-119	-1562	-1366	-1169	31
334	-1148	-1968	-239	31
50	101	-1627	552	31
525	805	-841	91	31
-261	1116	72	-57	31
-362	1792	316	29	31
-21	1760	-248	-67	31
-49	483	-896	-54	31
-274	-455	-778	-223	31
-623	-870	-208	-108	31
-524	-1432	107	-239	31
-279	-1321	585	-233	31
232	-598	745	442	31
-274	-338	920	181	31
-428	-727	1092	226	31
-264	-1191	749	-139	31
-343	-306	297	33	31
302	1634	-448	638	31
466	1933	-716	-201	31
339	1070	-480	-470	31
-482	-22	-430	-782	31
-1533	-1273	-254	-692	31
-1242	-1341	102	-216	31
-650	-655	152	-592	31
-578	16	169	-392	31
150	528	398	801	31
396	647	335	1281	31
-405	609	186	477	31
-327	578	219	-743	31
700	576	571	-1487	31
1070	621	1053	-1102	31
811	325	1030	57	31
869	-486	52	2219	31
685	-830	-608	2750	31
550	-867	-879	1327	31
-62	-855	-1145	901	31
-1133	-171	-286	22	31
-1879	131	126	237	31
-779	109	-112	414	31
1021	566	569	-687	31
1126	666	1450	-1364	31
1328	217	1705	-2089	31
826	-95	1336	-1403	31
690	-225	-227	-840	31
971	-431	-1794	-246	31
30	-385	-2744	1463	31
-145	-32	-3763	2343	31
-21	10	-3332	1867	31
295	-39	-1667	16	31
-79	149	24	-1174	31
-316	107	815	-1001	31
85	251	659	-435	31
-435	603	646	-133	31
-253	525	894	-538	31
65	312	1376	-925	31
83	173	1563	-1222	31
-62	16	1386	-751	31
-401	-22	1436	-354	31
-413	584	1591	284	31
-813	1048	819	1806	31
-773	814	-543	2980	31
154	997	-1722	2634	31
408	130	-2309	112	31
265	-2154	-1819	-1568	31
369	-2694	-525	-1857	31
-18	-1976	940	-1517	31
218	-1698	1467	-1139	31
468	-951	1350	-692	31
-702	-61	859	430	31
-1663	322	327	917	31
-972	1268	157	1050	31
-710	2750	482	396	31
-1464	3157	656	-251	31
-1198	1696	-396	-683	31
-550	420	-1045	-727	31
738	-127	-807	-533	31
2004	-980	-478	-429	31
1372	79	-366	1377	31
120	583	-482	2225	31
-581	-906	-498	706	31
-1361	-1392	-286	-635	31
-1039	-1555	87	-164	31
207	-1347	416	-29	31
916	-426	811	-279	31
2892	10	962	-94	31
3270	-931	918	-204	31
-92	-1304	537	149	31
-3244	-728	-67	2	31
-2264	-880	-472	-150	31
629	-322	-423	-605	31
28	1015	304	-906	31
-166	1952	671	-418	31
619	1669	347	-165	31
517	621	-69	128	31
1586	117	-369	-2	31
1054	-230	-408	199	31
505	-1064	335	1019	31
957	-1628	1326	354	31
432	-1060	966	-885	31
127	-161	724	-602	31
-336	459	156	189	31
167	789	-2049	260	31
404	1096	-2776	-653	31
-667	1351	-2319	269	31
-883	970	-1812	1166	31
-1096	534	-886	124	31
-706	885	-167	630	31
181	1424	510	562	31
112	845	753	35	31
-59	96	641	-349	31
-532	377	579	-199	31
-923	462	580	283	31
-982	339	994	-773	31
-355	-207	1704	-1163	31
909	-1126	1960	-335	31
-601	-1298	1671	830	31
-971	-1397	1044	781	31
1391	-1291	-195	-456	31
1269	-1160	-847	-570	31
1069	-864	-498	242	31
846	-211	-852	-1	31
-448	55	-1204	-108	31
-1000	79	-1377	44	31
-1271	-24	-1474	-848	31
-1107	102	-750	-370	31
-470	483	-836	1080	31
739	1639	-919	1589	31
1510	2295	168	1115	31
1357	994	895	1371	31
1401	-146	859	1333	31
617	-1085	220	-442	31
-1	-1713	-358	-1293	31
522	-577	-296	-1489	31
861	656	-24	-1690	31
407	682	477	-1427	31
-1294	204	477	-585	31
-1472	-420	595	1526	31
-291	-1453	1283	1687	31
-553	-1713	1260	-958	31
-192	-852	646	-922	31
460	-347	-207	212	31
-289	-106	-957	126	31
-743	338	-1587	126	31
-769	674	-1381	300	31
-1051	526	-309	578	31
-742	37	244	46	31
53	-292	428	222	31
254	-4	470	597	31
-250	906	462	395	31
262	2044	766	-131	31
1330	3563	734	-11	31
688	3861	-72	72	31
181	1720	-628	-500	31
678	-1015	-574	-640	31
76	-3233	-553	-487	31
-387	-3832	-611	-321	31
-336	-2617	-290	-282	31
121	-1185	383	-71	31
299	-108	727	-352	31
-330	529	722	-204	31
-482	1069	528	-184	31
-1094	1613	439	72	31
-451	1025	315	575	31
350	-810	146	603	31
599	-2084	284	642	31
959	-2123	106	121	31
-141	-868	122	-162	31
-77	811	536	-731	31
-223	933	668	-1319	31
-492	213	337	-1296	31
-179	-155	-417	-883	31
-958	-506	-958	-169	31
-575	-544	-825	1031	31
67	-388	-209	1319	31
535	-285	149	626	31
657	57	39	2058	31
243	815	-362	2080	31
-142	1373	-1242	-5	31
-102	1231	-1759	-156	31
236	1049	-749	-174	31
-413	749	499	-401	31
-133	598	405	-657	31
111	450	225	-305	31
562	220	562	-213	31
1103	619	893	-964	31
-413	578	1253	-355	31
-438	8	1306	-146	31
804	-405	997	215	31
771	-545	295	-277	31
844	-235	-423	-906	31
285	-35	-655	144	31
-558	-203	-853	517	31
-293	-630	-1231	619	31
-836	-803	-866	91	31
-797	-903	-359	-209	31
137	-982	-931	-231	31
167	-568	-439	-478	31
543	-270	968	274	31
912	100	1145	492	31
847	473	701	-157	31
24	337	-208	324	31
-1178	400	-1450	640	31
-1848	785	-2193	-120	31
-1101	810	-1285	93	31
17	380	278	-878	31
-279	-91	860	-1056	31
69	-648	850	570	31
774	-842	113	-394	31
947	-368	-451	-743	31
1363	-190	332	745	31
1152	-112	1726	1693	31
-194	98	1840	1166	31
-900	119	605	1562	31
-488	489	-625	1236	31
-303	1464	-1238	-995	31
-197	2764	-986	-1069	31
-158	2466	-312	-632	31
84	106	362	2	31
402	-1854	676	33	31
1061	-2917	553	-219	31
881	-2796	434	-196	31
-1487	-1503	292	-907	31
-1253	-131	76	98	31
517	834	69	1052	31
-44	802	-150	489	31
-55	173	-720	-444	31
-139	-116	-625	-1173	31
41	169	59	-882	31
788	-140	267	-575	31
631	-726	309	-111	31
-410	-765	628	208	31
-2106	-1019	628	-219	31
-995	-1190	457	-309	31
460	-633	280	232	31
-408	119	73	17	31
-1326	257	-37	-119	31
-263	643	335	873	31
1600	1249	443	450	31
860	1565	-455	-161	31
135	1840	-724	117	31
-25	1249	-724	448	31
487	508	-982	688	31
409	411	-731	-257	31
-330	256	-132	-398	31
646	-114	156	334	31
605	-516	-99	-75	31
569	-545	-41	-450	31
172	-538	112	-502	31
-119	-501	151	-307	31
558	-283	323	127	31
-618	-194	533	-22	31
-1380	117	1114	-107	31
-317	-210	2286	-116	31
779	-776	2594	-840	31
741	-694	1035	-1482	31
522	-359	-896	-771	31
-725	127	-2446	-153	31
-2326	198	-3109	-742	31
-449	290	-2259	254	31
1708	496	-710	2434	31
975	509	-49	3363	31
-675	441	-412	2571	31
-202	391	-453	-307	31
374	784	-65	-1372	31
-480	1303	552	-1052	31
-118	2292	635	-635	31
396	3599	400	407	31
858	2373	641	488	31
646	-1093	664	1069	31
593	-3100	1012	153	31
846	-3819	1654	-399	31
-550	-3897	1299	-260	31
-1766	-2613	-61	-902	31
-1772	-1308	-1445	-319	31
-303	-641	-1560	-335	31
-11	321	-605	-577	31
-552	962	613	-297	31
895	739	1404	-901	31
871	659	759	-1206	31
299	485	-510	517	31
836	342	-1467	1664	31
834	387	-2168	1479	31
753	575	-1717	177	31
-129	573	-259	-319	31
-460	-135	-101	1212	31
-169	-382	-398	901	31
-774	-352	-22	-933	31
-210	-258	179	-885	31
167	79	547	306	31
-242	532	1006	397	31
111	1604	1100	171	31
228	1732	1208	75	31
316	436	1441	347	31
369	-486	1303	216	31
-138	-1339	1252	-206	31
-563	-1748	1177	0	31
-458	-861	638	116	31
-215	-245	-834	-207	31
-85	238	-2308	-340	31
3	1462	-2516	-355	31
-157	1555	-2170	-1134	31
-313	749	-1743	-532	31
190	344	-735	-443	31
494	-644	305	-1417	31
102	-592	500	-855	31
-387	-37	696	-538	31
-894	-1055	546	-116	31
-1141	-1125	669	563	31
-1122	-44	999	374	31
-1394	917	893	-11	31
-813	1914	1027	607	31
1505	1979	652	802	31
2554	1394	209	102	31
1427	938	-80	-434	31
834	4	79	-583	31
726	-933	655	-888	31
82	-2006	541	-1374	31
-295	-2872	70	126	31
92	-2009	-325	1987	31
21	-430	-198	2146	31
-1068	807	49	924	31
-860	257	-96	222	31
-881	-468	-472	721	31
-1653	-229	-1020	1539	31
-1062	-197	-1439	1377	31
-964	897	-1080	281	31
-530	767	-16	-176	31
1079	-363	604	-1336	31
1613	-1085	597	-1585	31
1417	-1454	7	-240	31
1134	-679	-455	74	31
862	-112	-620	-142	31
485	490	-408	-273	31
-551	525	521	-1016	31
-354	37	1094	-1322	31
-11	11	989	-956	31
179	64	641	-615	31
855	330	398	513	31
845	547	-127	1128	31
665	857	-1040	506	31
354	1303	-1230	277	31
295	1475	-876	1648	31
-209	1480	242	2014	31
-683	2092	2030	182	31
-225	2100	2265	-850	31
-71	333	1834	-1286	31
-279	-748	1112	-1798	31
-167	-922	-699	-2286	31
61	-1066	-1511	-1861	31
-290	-1367	-1837	-995	31
-217	-2032	-2548	543	31
-84	-1860	-1960	2890	31
-625	-1343	-748	2819	31
-407	-654	-157	1692	31
-432	-255	325	908	31
-328	-488	74	-272	31
352	-242	-200	-1189	31
-117	99	227	-1203	31
-64	182	593	-201	31
561	190	1140	-332	31
74	280	1782	-339	31
-337	446	1874	154	31
-819	508	516	374	31
-1489	388	-664	934	31
-964	288	-1027	407	31
167	250	-1636	-90	31
855	222	-1416	-7	31
1172	308	-551	385	31
822	297	-358	-89	31
47	740	-240	-139	31
-959	1253	411	139	31
-909	835	997	-947	31
673	87	1060	-1021	31
794	-539	556	-981	31
-101	-789	147	-696	31
154	-717	-364	-16	31
-275	-774	-465	471	31
-853	-610	266	876	31
355	-200	708	405	31
540	246	686	349	31
290	1189	328	498	31
410	2120	183	555	31
-336	1807	617	1163	31
-332	198	703	775	31
-205	-1385	35	28	31
907	-2103	-418	-527	31
1573	-1356	-1071	-1055	31
1363	197	-1722	-978	31
465	538	-1333	-1832	31
-783	-2	-386	-1464	31
532	-248	600	-392	31
-685	527	848	-499	31
-1732	966	591	490	31
114	-268	174	733	31
-598	-1103	-106	303	31
-1181	-1330	-116	695	31
544	-1444	348	853	31
729	-704	1645	692	31
498	382	2634	-465	31
1726	1028	1924	-916	31
365	872	-142	-460	31
-2475	616	-2044	-457	31
-2511	715	-3151	1616	31
-593	1218	-2719	1547	31
187	1498	-1218	-1004	31
387	448	134	-188	31
430	-1083	418	397	31
98	-1956	-29	619	31
172	-1479	-298	1320	31
523	-425	55	783	31
979	96	870	845	31
358	343	1054	-217	31
513	318	1369	-1369	31
792	720	1608	-1643	31
-708	1003	1073	-2034	31
-878	156	320	-1319	31
396	-599	193	221	31
-264	-984	370	1966	31
-1280	-1069	123	1717	31
-21	307	-162	632	31
1116	1661	-410	292	31
1290	799	-1141	249	31
1220	-364	-1448	464	31
350	-784	81	-360	31
-675	-1332	984	454	31
-552	-920	352	416	31
-671	-62	-1221	-821	31
-1130	160	-2832	-219	31
-527	483	-2507	-926	31
-96	1276	-1421	-667	31
-37	1810	180	-167	31
284	1660	1348	259	31
568	1103	1375	680	31
457	-287	1385	-444	31
435	-1517	1327	-1261	31
65	-2080	1645	-1767	31
-272	-2352	1638	-890	31
249	-1334	593	904	31
32	28	-613	3005	31
-184	561	-1850	3156	31
-721	602	-2749	552	31
-621	280	-2125	-1414	31
465	-88	-899	-677	31
200	-232	-19	-224	31
34	114	603	-998	31
-310	534	567	-1	31
-489	-310	192	-126	31
-546	-1294	-304	-1091	31
-444	-635	49	-1351	31
428	386	960	-988	31
561	842	941	-646	31
575	604	749	-332	31
690	-61	478	567	31
-270	144	274	363	31
-1289	627	1365	265	31
-284	727	2435	-96	31
-66	929	2022	-515	31
-141	1050	631	207	31
831	1626	-1140	2088	31
432	2413	-2726	3133	31
586	2238	-3204	1084	31
506	853	-1958	-1310	31
514	-1057	-565	-658	31
652	-1888	-12	80	31
-77	-1984	420	-870	31
-98	-2009	751	-320	31
-265	-1404	822	-192	31
34	-950	734	-221	31
-87	-534	645	-97	31
-997	566	608	-252	31
-1110	2248	561	-36	31
-167	3122	398	-59	31
787	791	209	316	31
967	-1687	164	248	31
476	-1527	97	133	31
-471	-540	-128	-129	31
-425	1364	-130	-873	31
-656	2546	-56	-1216	31
-590	1221	109	-1131	31
412	-1829	824	-583	31
67	-4000	1589	832	31
-629	-3265	1136	1746	31
-969	-31	-406	1657	31
-397	1172	-1459	1374	31
261	-476	-2120	618	31
-29	-749	-2311	255	31
-291	-1209	-1213	33	31
-357	-1339	347	-620	31
21	-334	1103	-447	31
510	-186	636	-156	31
162	-220	169	-1113	31
298	-456	213	-1096	31
911	-101	566	189	31
385	322	1297	685	31
513	618	764	69	31
465	1085	-547	147	31
-86	1588	-914	522	31
304	1846	-1715	-818	31
670	940	-2508	-24	31
95	202	-1333	416	31
-901	-388	0	-94	31
-317	-766	643	1078	31
203	-99	933	-307	31
-151	333	1315	-980	31
71	307	1536	-74	31
383	262	332	49	31
227	209	-191	-1107	31
-212	115	-49	-2446	31
205	13	-408	-1931	31
348	61	-709	-135	31
-294	181	-941	3687	31
-215	244	-1042	4000	31
-31	302	-1079	2184	31
-226	518	-362	1040	31
-321	625	837	-118	31
-153	328	919	-1625	31
-337	-103	678	-1033	31
83	-679	516	-59	31
903	-1228	-135	322	31
730	-970	-436	127	31
324	-409	-417	-560	31
-567	-83	-257	-1067	31
-1504	6	-120	-1552	31
-1056	-212	415	-706	31
12	-127	1233	-632	31
76	26	1820	-877	31
-235	-78	1825	-287	31
116	-80	1044	-565	31
508	308	210	-6	31
675	1123	-621	529	31
675	1736	-475	637	31
81	1662	221	876	31
-321	1118	350	329	31
-377	265	-34	159	31
-1004	-138	-899	188	31
-766	61	-1395	-624	31
-337	-567	-1290	-709	31
-304	-1186	-783	191	31
679	-792	-418	828	31
1039	-207	-452	827	31
936	255	-576	-152	31
1080	27	-388	-415	31
1102	-501	-299	-432	31
247	-755	249	-1006	31
-1021	-958	1095	-628	31
-736	-705	826	19	31
-141	-351	659	568	31
-437	-175	502	801	31
-1595	330	121	862	31
-1210	1204	285	517	31
-685	1799	596	51	31
-700	863	743	374	31
428	-443	507	405	31
140	-1057	170	299	31
533	-1417	-194	-287	31
986	-67	-522	-1373	31
1354	1293	-601	-1550	31
1232	968	-30	-822	31
320	859	478	-885	31
1294	-16	551	-1795	31
342	-1460	764	-1913	31
-1651	-1194	714	-476	31
-1059	-963	277	1835	31
-202	-1075	-545	2995	31
-691	-152	-674	3248	31
-312	151	-693	1570	31
210	360	-825	-744	31
-452	516	-91	-1164	31
247	-280	-268	-985	31
792	-370	-202	66	31
649	-345	324	2725	31
641	-503	-440	3602	31
16	-512	-1010	1369	31
73	-499	-1023	774	31
445	-165	-1143	278	31
28	240	-1212	-1176	31
48	446	-952	-1827	31
822	223	-102	-2352	31
577	97	1216	-1637	31
297	170	1810	-1372	31
315	278	1783	-1269	31
-186	177	703	-396	31
-715	144	-1082	-189	31
-1019	348	-1384	-275	31
-872	363	-733	100	31
-561	511	265	1385	31
-313	304	871	1504	31
-228	34	1138	429	31
-94	150	1153	127	31
-89	165	282	333	31
9	-5	-714	-361	31
186	139	-1055	-1043	31
1119	829	-952	729	31
2137	882	-1129	688	31
-235	298	-486	-532	31
-2399	-308	175	149	31
-1325	-552	275	-135	31
-908	-286	502	-4	31
-1533	-470	580	-429	31
-1705	-712	923	-635	31
352	-681	1015	-142	31
1997	-672	1092	-384	31
1874	7	773	-109	31
1501	1349	435	67	31
-1252	2442	-91	815	31
-1012	2372	-974	1023	31
643	2149	-714	304	31
-449	1914	-86	-875	31
402	-9	942	-929	31
1154	-2275	1554	-803	31
969	-3822	1326	-1805	31
939	-3623	1014	-1181	31
506	-1952	-35	-5	31
287	-655	-1338	958	31
217	829	-1979	931	31
42	1873	-1834	1367	31
-88	2235	-1338	1938	31
-154	1647	-327	297	31
-576	1123	536	91	31
-576	1579	773	445	31
-289	948	480	767	31
35	62	-205	523	31
593	-695	-277	-1177	31
441	-1923	-204	-329	31
-14	-2894	-122	352	31
-277	-3135	-299	-724	31
-846	-2270	-442	-1655	31
-953	-741	-50	-2214	31
-801	86	146	-477	31
-874	-44	305	442	31
-698	-118	250	525	31
-122	-66	387	1811	31
1283	119	204	1928	31
1442	218	-114	484	31
624	390	-134	-1262	31
796	444	40	-1362	31
363	434	732	-495	31
-82	817	392	-883	31
-95	781	18	-1194	31
-324	641	213	493	31
91	712	92	1450	31
186	715	-21	479	31
-1065	468	261	285	31
-2265	266	1077	1100	31
-1868	505	1484	1088	31
154	500	1443	-299	31
1019	273	400	-898	31
455	87	-1376	76	31
355	-208	-2447	675	31
-194	-79	-2362	888	31
403	450	-1233	-613	31
936	36	150	-2869	31
-236	-864	671	-465	31
52	-1557	-170	1137	31
633	-2092	-1193	640	31
283	-1302	-1517	2095	31
502	-52	-864	1304	31
484	611	73	-60	31
399	1236	841	21	31
183	1338	1340	-396	31
-255	619	1167	-192	31
-556	252	821	94	31
-552	273	-186	-176	31
-31	140	-501	-243	31
-338	72	566	-523	31
-316	-60	460	-510	31
-307	128	-227	-533	31
-742	389	-479	-438	31
-146	372	-1398	19	31
154	578	-1340	518	31
485	496	305	-598	31
779	-256	1088	-1297	31
0	-900	1006	-513	31
-1041	-864	790	-470	31
-1192	-536	671	132	31
-334	-163	853	251	31
402	455	676	212	31
600	381	408	374	31
631	57	47	72	31
146	461	-292	173	31
-933	25	64	-254	31
-1205	-805	765	-1084	31
-803	-905	1245	-702	31
-375	-872	1134	330	31
1225	-561	805	545	31
2130	-361	109	1006	31
747	-298	-1165	2154	31
-68	80	-781	2323	31
-220	706	-395	880	31
-127	1340	-1507	-1048	31
-462	1597	-2082	-1915	31
-425	1288	-2581	-400	31
1005	775	-2527	467	31
541	731	-1664	-1266	31
413	684	55	-1712	31
319	1284	998	27	31
-21	2072	739	428	31
314	601	1060	-259	31
-368	-1326	914	179	31
-78	-1880	691	719	31
-326	-2171	620	463	31
-77	-2322	518	327	31
87	-1870	443	808	31
-906	-1303	157	719	31
-557	-1293	66	248	31
1057	-977	524	128	31
1743	-291	1436	-295	31
-670	-67	1574	-166	31
-1360	336	863	663	31
52	1443	-114	1684	31
1082	2809	-1598	1159	31
809	2686	-2450	-2507	31
-1039	1161	-1514	-4000	31
-997	-75	28	-3230	31
177	-2041	869	-1201	31
136	-2636	971	1427	31
-121	-1004	982	1739	31
-210	-220	892	1705	31
-441	-23	519	1917	31
270	-766	423	779	31
505	-1276	256	-959	31
377	-185	-239	-1095	31
450	717	-689	395	31
245	997	-1017	1060	31
553	889	-653	351	31
283	584	102	-475	31
166	408	220	-543	31
373	8	189	-900	31
237	-110	249	-641	31
-304	837	110	-6	31
-1085	1239	866	-710	31
-461	743	1218	-544	31
-605	260	163	470	31
-856	-656	-1085	1502	31
420	-1239	-2601	2422	31
191	-979	-3074	2242	31
275	-376	-1879	2134	31
686	-94	-830	1297	31
-710	-126	-600	-790	31
-1394	470	-67	-1967	31
-706	1281	701	-2168	31
-819	1239	1514	-1574	31
-546	273	1764	-342	31
742	-705	1368	-345	31
372	-1199	952	-89	31
41	-983	-79	929	31
-101	-215	-618	607	31
-465	240	28	-86	31
-197	259	550	-730	31
200	215	364	-1358	31
668	96	273	-638	31
-118	164	256	469	31
157	689	337	410	31
1541	1006	423	111	31
743	1121	245	-237	31
-708	963	253	-324	31
-799	750	195	-138	31
186	898	410	-289	31
1320	897	443	452	31
739	1362	116	687	31
220	953	-345	-422	31
424	-1084	-1175	-600	31
127	-2534	-1313	-261	31
542	-3183	-609	-441	31
-309	-2749	57	-317	31
-1098	-1293	350	420	31
-505	105	495	825	31
-230	1268	225	53	31
137	1446	31	69	31
-507	618	230	492	31
-560	-104	122	-272	31
567	-767	380	340	31
650	-1555	221	526	31
1220	-1526	-600	-849	31
796	-508	-942	-471	31
-384	586	-954	903	31
129	1045	-522	490	31
-879	1073	34	17	31
-804	969	423	382	31
435	510	704	-174	31
-1072	74	805	-488	31
-283	776	1084	-1594	31
585	1449	1159	-3146	31
-102	480	630	-2226	31
-56	22	-311	1399	31
-489	-474	-1591	4000	31
-642	-1851	-2001	3099	31
-651	-1161	-1148	1160	31
-558	-46	-455	1459	31
-1283	-541	-177	901	31
-382	-776	960	-686	31
879	-508	2079	-1023	31
654	-355	1973	-843	31
920	-1	1613	-380	31
867	83	1022	-992	31
545	152	-12	-1650	31
270	611	-917	-1187	31
322	526	-1804	-756	31
409	225	-2398	673	31
418	165	-977	835	31
-85	64	703	-1418	31
-648	-212	748	-1622	31
-258	-310	-111	314	31
-27	-6	-1691	2674	31
-127	230	-2393	3724	31
-209	319	-1667	2470	31
274	255	-664	-102	31
947	176	533	-1485	31
397	140	1496	-221	31
21	-78	1504	-770	31
-98	-244	1240	-979	31
-340	-59	861	-327	31
32	544	91	267	31
187	1170	-558	1207	31
-806	883	-812	19	31
-1943	144	-784	-319	31
-781	46	-74	-560	31
421	-278	374	-996	31
-161	-685	199	-303	31
401	-413	515	101	31
753	-122	709	-37	31
2	606	575	-334	31
612	1382	680	-380	31
928	1693	632	-871	31
-502	1444	169	-1519	31
-1150	500	-157	-1540	31
617	-290	-214	-816	31
663	-1367	-318	1026	31
-543	-1572	-641	2595	31
-814	-852	-795	1144	31
-1581	-795	-44	236	31
-556	-649	781	550	31
691	-583	717	-416	31
976	-499	304	-347	31
532	-512	100	-704	31
101	-550	51	-871	31
773	476	92	120	31
435	1313	220	352	31
79	631	151	731	31
-38	-77	53	1272	31
344	-691	139	919	31
475	-1191	65	858	31
225	-36	284	-19	31
423	1040	885	-1458	31
-158	980	1599	-1304	31
27	732	2163	-758	31
-202	-142	1084	-1074	31
-695	-1219	-920	-1818	31
-458	-1562	-2339	-530	31
-899	-1583	-3428	992	31
-854	-1065	-3109	504	31
-1147	-24	-1420	-219	31
-1020	470	220	289	31
209	544	1147	603	31
334	612	1199	1139	31
935	1054	788	3561	31
1666	2454	189	2820	31
2027	3130	-84	-1013	31
1481	1207	17	-1838	31
-656	-1191	206	-1047	31
-596	-2344	421	-1068	31
-164	-1974	396	-1078	31
-1284	-22	203	-1137	31
-1206	1460	-204	946	31
107	982	-1058	2535	31
147	-759	-2165	2521	31
-224	-2182	-2407	2372	31
289	-2575	-904	-578	31
162	-1510	798	-2165	31
-87	-182	1789	-2312	31
22	239	2463	-2434	31
730	455	2334	-1595	31
-528	501	1453	-1108	31
-410	410	264	1712	31
1267	195	-871	3151	31
-81	-169	-1561	722	31
429	-170	-1598	-698	31
626	215	-1403	-367	31
-345	440	-1619	-620	31
-817	498	-889	-716	31
-1307	569	742	-422	31
208	485	2140	390	31
639	446	3231	811	31
630	473	2307	-385	31
500	323	440	-298	31
-723	197	-1288	1670	31
-359	205	-2939	2149	31
59	500	-3009	260	31
198	798	-1632	-1382	31
547	1146	-15	-1535	31
82	1775	535	-366	31
322	1640	845	405	31
454	581	1195	288	31
-306	-296	949	44	31
-245	-872	549	-379	31
-109	-1301	292	-393	31
-146	-1394	377	-412	31
83	-1400	721	-600	31
177	-1005	1046	-786	31
-427	-387	659	-439	31
-2162	24	-117	717	31
-1754	250	-849	1157	31
-6	217	-1501	227	31
-547	398	-1115	-728	31
-141	483	455	-905	31
425	614	1036	-464	31
452	1143	671	-80	31
868	809	818	-73	31
-89	662	726	-76	31
149	196	757	-305	31
1272	-2318	808	449	31
572	-3003	524	1737	31
-1032	-2229	-79	758	31
148	-2190	-867	-478	31
1180	-1266	-1232	-790	31
339	475	-1131	-1133	31
455	1755	-475	-1443	31
-791	1375	152	-1009	31
-983	1113	-78	950	31
-293	1398	-835	1967	31
-314	860	-1257	1060	31
711	-351	-1298	1764	31
761	-998	-984	3631	31
630	-950	101	619	31
818	-1042	1233	-1246	31
219	-97	1326	-736	31
215	619	700	-1361	31
375	352	664	996	31
292	313	1332	1243	31
441	259	1147	191	31
380	209	408	109	31
-262	125	-347	-1399	31
-1441	80	-1579	-1347	31
-1395	36	-1310	-1770	31
-765	137	681	-2907	31
-790	319	1613	-1747	31
374	318	781	-557	31
1094	440	-646	1095	31
801	591	-1759	1965	31
96	365	-2550	780	31
-1480	-306	-2087	464	31
-615	-600	-237	159	31
738	-323	628	-257	31
147	140	373	436	31
192	411	345	1532	31
145	151	962	2006	31
262	79	1883	198	31
450	-61	1267	-923	31
340	-519	12	-503	31
641	-682	-690	-3	31
522	-539	-2058	2427	31
390	-102	-2872	1662	31
-452	145	-1787	-2374	31
-987	256	-26	-2336	31
-615	546	809	-519	31
-517	640	803	-731	31
-212	266	921	-615	31
-978	-182	1015	-218	31
-1006	-46	877	-179	31
-114	66	1039	-327	31
-402	15	1491	-202	31
-11	478	2029	557	31
527	975	1738	-152	31
814	932	491	-262	31
1037	314	-758	346	31
894	-396	-1682	-25	31
808	-687	-1965	280	31
-460	-439	-1578	1336	31
-3220	-76	-602	1975	31
-2972	-205	381	742	31
1191	-240	829	-568	31
2339	-328	631	-349	31
725	89	41	36	31
716	1156	-390	-175	31
726	1412	-394	-828	31
545	1133	-32	-596	31
26	-474	643	-299	31
-633	-2381	906	-608	31
453	-3285	480	-320	31
939	-3127	-24	-117	31
170	-1059	-225	-149	31
384	593	277	-14	31
217	997	510	115	31
-496	742	460	82	31
267	456	194	184	31
499	1270	-433	487	31
-344	1032	-969	-1	31
-809	-215	-1435	-1210	31
-1703	-339	-1000	-958	31
-1157	-488	-503	437	31
-633	-414	-249	510	31
-1170	307	322	214	31
153	423	621	-66	31
-1009	348	551	-510	31
-811	340	355	-209	31
1965	344	217	307	31
1882	400	165	184	31
1654	435	338	196	31
923	401	465	-75	31
633	69	529	-1585	31
186	-396	815	-1060	31
-1171	-333	557	1179	31
-1041	22	-264	1292	31
-477	-11	-642	696	31
-382	-16	-905	2137	31
618	-19	-907	1943	31
625	362	-95	610	31
-509	1563	580	346	31
-141	1452	783	46	31
-212	-107	796	714	31
105	-800	363	52	31
484	-1269	-1005	-778	31
299	-1324	-2079	-938	31
255	-554	-1050	-882	31
-829	-149	173	-796	31
-832	-153	457	-725	31
-190	-383	1024	-1315	31
-177	-332	1868	-2670	31
117	-439	1564	-1135	31
-4	-306	-219	224	31
247	173	-1198	761	31
641	160	-2293	3688	31
96	235	-4000	3897	31
-32	359	-3866	774	31
220	742	-1393	-678	31
479	979	538	-555	31
597	750	1312	-522	31
-89	601	1462	-589	31
4	509	1436	-315	31
685	837	1481	-391	31
-214	1311	1578	-582	31
-991	383	2074	-745	31
-736	-1841	1940	-1016	31
-868	-2877	1209	-795	31
-954	-2413	469	-176	31
-313	-1271	-937	570	31
321	-115	-1783	1241	31
394	968	-1696	330	31
795	3180	-867	-1167	31
-350	3449	409	-668	31
-1894	391	369	-444	31
468	-1487	-127	7	31
2167	-2113	-194	740	31
552	-2070	-339	517	31
117	-57	-167	511	31
332	1040	302	-121	31
398	485	721	-329	31
480	365	785	-149	31
-441	140	611	-107	31
-441	-167	480	-137	31
-317	-149	282	319	31
-12	-426	-22	773	31
6	-416	-117	-30	31
-1092	-27	-172	-262	31
-170	609	-236	-247	31
355	611	109	-232	31
149	-338	568	-71	31
351	-778	938	66	31
-953	-1200	1125	-207	31
-923	-1126	1060	-783	31
-111	-227	699	-142	31
302	257	-442	662	31
151	452	-1777	-425	31
-586	500	-1941	-1392	31
53	727	-1403	1069	31
310	1029	-983	1639	31
590	1244	-671	-417	31
972	1332	-624	-13	31
349	656	38	-119	31
247	-355	922	-1058	31
159	-1027	1158	-735	31
162	-1527	1228	475	31
901	-1285	775	2603	31
719	-579	-438	2571	31
57	-175	-1328	131	31
215	198	-1104	61	31
-268	278	-447	-393	31
-496	167	-112	-2070	31
-289	-32	563	-1398	31
-233	124	1673	-1038	31
234	784	2131	-1574	31
79	900	1461	295	31
-418	953	106	2735	31
-478	873	-1293	2554	31
-104	235	-1715	1307	31
-106	-13	-1012	-336	31
-270	-264	-856	-1284	31
-444	-624	-868	-507	31
-509	-819	-554	413	31
-39	-879	-262	426	31
76	-410	47	-158	31
-520	62	-430	259	31
-350	359	-358	614	31
755	382	285	-708	31
454	-52	453	-1292	31
41	-320	1127	-1817	31
250	-615	1403	-2865	31
107	-564	645	-2268	31
493	-40	-343	-548	31
144	521	-753	2124	31
-488	1268	-968	4000	31
-531	1219	-969	2915	31
-943	331	-526	658	31
-342	-574	-189	-177	31
-76	-839	500	-1600	31
-144	75	852	-1660	31
-725	912	765	-221	31
-838	423	374	1023	31
591	-249	107	1021	31
472	943	195	-417	31
1007	2501	409	-27	31
936	1246	975	-371	31
628	-86	768	-283	31
1085	-734	-145	512	31
42	-2519	-648	-528	31
-744	-2210	-463	-1503	31
194	-1053	-586	-835	31
1269	-1194	-641	679	31
375	-1638	-250	922	31
-41	-1474	-144	598	31
-876	-522	134	-17	31
-400	-60	363	74	31
631	234	256	30	31
-862	172	107	-359	31
-403	46	1	-436	31
-348	485	-57	-655	31
-197	1407	45	-647	31
512	1633	435	42	31
-127	429	1093	1297	31
-986	-506	1336	737	31
-883	-887	831	270	31
528	-863	425	247	31
-169	-186	233	-527	31
-1211	1052	39	-1135	31
-262	1658	-365	-2028	31
798	1254	-946	-1415	31
305	852	-1395	-173	31
186	150	-2127	1164	31
771	-147	-2010	2413	31
-555	145	-1025	766	31
-409	99	-186	-169	31
1220	137	600	1005	31
1237	96	965	411	31
1266	-104	1035	77	31
765	-197	693	-105	31
197	-528	350	-498	31
136	-415	214	-459	31
-417	-96	345	-1372	31
-507	-59	1030	-1813	31
-230	485	1840	-1536	31
-330	633	1978	-1316	31
-1106	-153	514	-197	31
-934	-1034	-1195	3413	31
-794	-1612	-2880	4000	31
-747	-1320	-3710	2062	31
964	-139	-2057	-753	31
1297	852	-96	-1424	31
254	912	1303	-1001	31
-1267	527	1554	-128	31
-560	199	1485	774	31
1048	91	1323	-26	31
245	39	628	-841	31
-322	46	523	-890	31
-832	135	64	-1068	31
570	-12	-674	-146	31
991	94	-1160	1575	31
-477	852	-1398	2769	31
-12	1698	-1517	1032	31
284	1940	-709	-749	31
528	1408	405	-1217	31
483	-471	425	-1507	31
148	-2275	159	-660	31
227	-2346	-567	-601	31
499	-2224	-577	-1071	31
445	-1587	1015	-1898	31
-787	-443	2074	-1687	31
-968	34	1687	465	31
107	288	602	3581	31
226	384	-467	4000	31
-108	360	-1390	2074	31
-62	423	-1563	710	31
-136	521	-447	-954	31
191	438	490	-746	31
109	911	375	-418	31
-643	1460	-1	-916	31
-1082	866	-422	-374	31
-948	101	-556	-372	31
-180	-475	-503	-1128	31
145	-1037	-279	-1595	31
696	-1144	450	-728	31
597	-632	739	-349	31
-457	159	687	-376	31
-587	943	617	-44	31
-8	1438	576	46	31
643	781	951	292	31
558	-619	1481	317	31
563	-1083	1555	473	31
259	-1111	673	412	31
-82	-937	-454	-136	31
91	390	-1584	-768	31
119	1175	-2205	-522	31
365	950	-1491	-35	31
-385	1130	-674	-523	31
-816	631	-555	-786	31
-335	-1196	-200	-829	31
169	-1751	439	-905	31
634	-1574	875	-988	31
-201	-1639	1024	434	31
-982	-446	620	2741	31
-1205	456	650	3296	31
-1164	471	781	2603	31
-221	1	229	487	31
385	-199	-376	-423	31
597	471	-787	-64	31
72	976	-1150	-384	31
-417	833	-1382	-121	31
628	696	-706	179	31
1175	843	244	879	31
-147	117	631	424	31
-1387	-577	235	-26	31
-150	-677	-92	-386	31
1042	-100	-4	-1266	31
524	806	149	-253	31
708	634	526	-449	31
474	-59	546	-770	31
235	-860	356	-891	31
722	-1020	162	-1415	31
636	-433	22	-649	31
443	-105	129	529	31
-171	14	390	891	31
-255	377	603	-61	31
-136	1086	483	372	31
-197	1805	-287	1105	31
224	1776	-754	419	31
49	800	-198	-996	31
-597	-695	316	-2432	31
-1222	-1968	512	-2264	31
-525	-1910	1109	-872	31
274	-1253	779	1881	31
323	-549	-1154	4000	31
1139	164	-2331	3995	31
1210	285	-2316	366	31
536	373	-1195	-2271	31
-509	250	402	-2103	31
-234	-165	783	-2223	31
858	-298	467	-1737	31
323	92	352	1659	31
-898	574	165	1247	31
-2012	404	-207	1373	31
-374	202	-410	1644	31
456	121	-607	-813	31
-306	-66	-776	78	31
-417	-290	-918	-381	31
-1041	-333	-707	-618	31
111	-11	262	478	31
323	117	723	144	31
182	220	863	-285	31
533	157	992	-555	31
209	-312	686	238	31
282	-554	396	-62	31
-374	-360	284	-299	31
-382	225	408	-547	31
181	862	324	-773	31
284	1135	76	31	31
-161	1047	1	181	31
-235	1252	-17	-259	31
-209	1447	-2	-59	31
-783	1224	138	824	31
-819	720	317	347	31
-924	-538	363	-268	31
-786	-1406	408	-269	31
219	-1553	396	-67	31
1174	-1392	470	212	31
1436	-751	497	12	31
575	366	-81	97	31
472	1817	-495	41	31
1017	1193	-668	-206	31
-390	-525	-1125	-414	31
-1070	-1515	-921	-933	31
-548	-2092	-311	-832	31
-825	-619	162	-197	31
141	242	422	-133	31
876	-531	289	240	31
125	-803	2	367	31
1215	-1436	-169	166	31
1234	-1694	-143	127	31
-44	-1190	-235	250	31
-136	-595	191	-350	31
-436	41	383	-1408	31
-136	714	210	-402	31
-6	1146	531	877	31
-324	1110	840	1450	31
-178	977	1301	1564	31
695	603	1128	348	31
1373	355	264	-1151	31
297	369	-395	-1197	31
-1054	60	-839	325	31
-493	-303	-1129	740	31
-615	103	-503	637	31
-1189	597	113	167	31
259	322	-493	796	31
718	220	-918	1859	31
873	383	-910	1480	31
552	1088	-1156	1460	31
-448	2754	-1278	-320	31
-116	3055	-960	-1113	31
-116	798	-641	-595	31
-47	-1151	289	-648	31
-116	-2204	1511	-1028	31
-52	-2762	2276	-1306	31
22	-1424	2891	-952	31
-169	-259	2266	-628	31
226	-157	235	391	31
143	-385	-1584	409	31
-129	-746	-2136	548	31
-318	-400	-1998	232	31
-89	-102	-1656	-472	31
312	-222	-1014	337	31
5	-435	-430	517	31
-834	-333	-75	-471	31
-1372	34	159	-849	31
-879	258	160	-956	31
-5	494	196	-685	31
-249	747	636	875	31
-250	902	577	151	31
593	955	445	-229	31
561	1136	927	-45	31
873	895	1167	-843	31
671	330	975	-520	31
-44	180	169	239	31
474	-401	-580	1262	31
545	-1010	4	60	31
69	-675	1200	-704	31
-191	-351	1196	-642	31
-430	-234	759	-1407	31
-243	-194	545	-349	31
-48	-490	-324	568	31
-332	-283	-445	34	31
-700	881	297	1347	31
-405	2332	-210	4000	31
40	3117	-1210	3822	31
-482	1843	-1331	2126	31
-811	-808	-1686	675	31
-12	-2935	-1794	-750	31
1207	-3841	-1330	-1604	31
1036	-2424	-937	-1342	31
291	-145	-161	-1127	31
336	658	529	-1481	31
-144	531	939	-1271	31
114	301	851	-1404	31
205	49	654	-794	31
141	-508	656	-274	31
358	-1038	739	-432	31
-312	-1022	1109	-150	31
-299	-654	928	24	31
-57	99	61	298	31
225	1073	-616	407	31
296	2066	-413	257	31
