File Name: not saved
Channel 1: 'EMG 1', 19676 values, raw ADC, no filters.
Channel 2: 'EMG 2', 19676 values, raw ADC, no filters.
Channel 3: 'EMG 3', 19676 values, raw ADC, no filters.
Channel 4: 'EMG 4', 19676 values, raw ADC, no filters.
Digitals combined (event=16, d=8, c=4, b=2, a=1): 19676 values, .

-14	-1	82	13	31
-45	-16	108	47	31
-21	-34	155	37	31
100	39	18	26	31
137	258	-214	39	31
95	407	-157	-17	31
-35	230	235	-151	31
24	-92	293	-142	31
121	-415	-21	-11	31
57	-535	-239	32	31
-12	-212	-592	50	31
-30	9	-620	51	31
-33	-14	-107	0	31
-14	46	-83	2	31
-15	48	-152	-10	31
-36	37	111	7	31
-62	45	122	74	31
-55	33	220	36	31
9	60	191	-64	31
10	84	108	-73	31
32	97	69	12	31
106	57	-77	45	31
170	-16	52	37	31
86	-77	170	-16	31
-59	-73	187	-58	31
-13	-23	220	-42	31
-9	20	209	27	31
-16	56	140	192	31
-26	0	-34	255	31
-38	-76	-242	145	31
-22	-66	-277	-87	31
-62	17	-165	-113	31
9	83	-102	73	31
-69	89	-70	117	31
-147	90	52	4	31
-71	68	300	-147	31
69	28	433	-109	31
111	-12	380	31	31
109	-4	228	234	31
239	12	42	193	31
36	-15	-146	22	31
11	-23	-314	16	31
62	-2	-100	-41	31
-158	22	177	-12	31
-134	3	169	-37	31
-51	-12	257	-69	31
-3	109	279	-54	31
-86	201	24	2	31
-107	-62	-228	16	31
-42	-277	-122	-145	31
-39	-90	0	-134	31
-6	82	-264	-29	31
4	193	-406	-32	31
26	172	-403	-72	31
12	-137	-553	-8	31
71	-286	-375	56	31
21	-114	79	19	31
-17	50	230	-1	31
144	37	170	-89	31
66	27	58	-114	31
15	61	-114	-44	31
22	112	-116	-27	31
-57	212	-34	-12	31
6	218	82	-29	31
3	155	180	-33	31
7	-9	131	71	31
-54	-190	29	122	31
-87	-276	23	27	31
119	-350	59	-39	31
109	-208	29	-26	31
121	-44	144	24	31
146	-62	97	168	31
-17	2	35	247	31
32	14	136	139	31
70	11	70	112	31
35	64	46	122	31
51	54	11	9	31
-87	57	24	-17	31
-168	33	51	-34	31
-62	22	20	-19	31
-99	15	72	-4	31
-148	9	81	-33	31
-45	25	125	-24	31
-5	37	141	-19	31
50	120	105	11	31
61	136	36	0	31
-31	112	10	1	31
23	77	126	-37	31
119	-44	174	-132	31
104	-112	123	-104	31
17	-147	-22	-14	31
-68	-121	-197	-1	31
-13	-4	-275	-7	31
29	34	-293	-31	31
-40	-23	-340	-52	31
-33	-19	-411	-21	31
-68	28	-312	-37	31
-64	7	-43	2	31
-34	14	80	62	31
-94	26	67	77	31
-54	21	82	104	31
28	19	69	59	31
149	-4	224	29	31
62	22	446	33	31
21	37	517	-1	31
133	134	676	-16	31
91	294	724	9	31
90	186	84	-89	31
52	16	-659	-169	31
64	-32	-987	-14	31
26	-228	-1173	89	31
-77	-338	-869	63	31
-105	-172	-397	97	31
-107	24	-41	123	31
-84	60	162	88	31
-113	39	239	-2	31
-27	71	400	-138	31
20	13	317	-187	31
-53	-33	250	-38	31
-14	-36	235	191	31
6	-10	136	236	31
-4	21	83	33	31
56	-9	76	-114	31
81	18	147	-55	31
-19	64	234	-67	31
-133	86	305	-67	31
-43	72	275	-92	31
11	160	178	-101	31
-75	269	-49	-6	31
-59	4	-320	39	31
-11	-323	-292	42	31
-49	-282	-94	-82	31
-69	-39	35	-118	31
-57	51	2	-41	31
-94	4	-13	-14	31
-10	6	-6	67	31
114	6	-94	98	31
118	-1	-165	109	31
101	-17	-177	67	31
109	-28	-51	-47	31
73	-30	14	72	31
19	78	96	215	31
41	243	156	134	31
-9	64	17	52	31
8	-204	-27	-24	31
-44	-144	-147	-91	31
-239	-15	-227	-48	31
-169	25	-42	62	31
-67	29	92	114	31
-38	36	134	-4	31
73	57	254	-64	31
184	80	432	-7	31
128	238	615	-79	31
64	376	676	-129	31
81	227	332	-124	31
71	-33	-186	-97	31
53	-272	-679	-56	31
61	-413	-695	46	31
128	-205	-105	135	31
80	22	11	79	31
-30	31	-136	182	31
-139	109	-112	207	31
-14	127	-262	32	31
98	-58	-271	6	31
-84	-259	-200	-6	31
-31	-244	-185	-33	31
-36	-114	-92	-13	31
-58	4	-57	-57	31
69	59	23	-112	31
23	34	126	-116	31
59	28	151	-149	31
100	-24	128	-149	31
77	-8	37	31	31
22	26	14	125	31
-47	13	86	141	31
-57	53	224	191	31
-31	64	320	115	31
19	52	248	81	31
-45	32	94	72	31
-101	20	-70	28	31
-44	23	-140	-37	31
-94	37	-130	-205	31
-194	37	-58	-286	31
-101	62	-67	-103	31
-34	176	-83	1	31
9	199	-41	-59	31
97	116	-1	-50	31
53	8	111	-104	31
68	-162	84	-19	31
129	-222	57	161	31
100	-129	137	192	31
59	-44	175	57	31
22	15	105	-54	31
6	16	-9	8	31
-29	-31	-54	84	31
-38	-26	-25	245	31
-57	44	-74	221	31
-14	65	-227	-91	31
51	44	-82	-280	31
-142	37	96	-214	31
-148	-2	42	-97	31
10	-2	26	-60	31
46	6	71	21	31
108	7	26	80	31
61	28	183	107	31
37	29	726	69	31
-22	21	671	124	31
-4	-4	-23	259	31
39	4	-421	113	31
-7	6	-812	-56	31
41	-12	-879	-41	31
-21	-8	-380	-46	31
-70	10	-128	-112	31
-64	26	-78	-157	31
-117	24	-131	-64	31
-96	-17	-248	81	31
50	13	-29	111	31
131	161	265	73	31
27	89	221	16	31
-11	-204	218	-18	31
126	-211	289	-6	31
114	228	247	2	31
82	576	172	-1	31
112	273	189	-11	31
7	-259	262	28	31
2	-388	178	32	31
9	-377	-19	-29	31
-3	-267	-234	-40	31
-69	-31	-205	-27	31
-144	-46	-78	82	31
-79	-35	-92	113	31
-83	26	-24	-80	31
-87	9	-26	-78	31
-10	52	-131	19	31
52	24	-157	-35	31
68	-16	-81	-74	31
104	-25	70	-104	31
201	9	154	-79	31
134	35	199	-65	31
-85	34	185	-7	31
-65	52	102	106	31
42	48	-2	145	31
-21	68	-84	82	31
46	172	-137	40	31
16	312	-109	96	31
-135	240	63	45	31
-74	70	148	-25	31
-61	-55	170	-49	31
-19	-257	256	-26	31
49	-330	174	31	31
46	-151	-60	59	31
27	66	-206	23	31
8	74	-242	-54	31
18	39	-122	-77	31
24	2	156	-49	31
41	-111	312	17	31
53	-119	297	65	31
89	-84	167	54	31
9	-57	-11	14	31
-41	-34	-217	2	31
-60	1	-499	-27	31
-107	40	-392	-42	31
-13	73	-110	-127	31
-41	150	-88	-218	31
-70	193	81	-69	31
-36	205	146	92	31
6	69	19	116	31
11	-120	74	126	31
-14	-72	343	101	31
105	-11	477	4	31
117	-4	87	-29	31
51	2	-237	-21	31
26	-22	-544	-6	31
57	-3	-681	121	31
116	-24	-92	205	31
37	-18	372	145	31
-84	16	387	62	31
-91	-2	304	-36	31
-63	4	-75	-124	31
-30	16	-425	-72	31
-14	-9	-361	-64	31
7	-15	-72	-79	31
-1	-12	179	-11	31
-93	-8	153	-11	31
-31	7	140	-54	31
61	11	175	-118	31
76	2	116	-106	31
59	16	28	33	31
61	61	79	217	31
106	111	227	249	31
73	138	145	178	31
43	87	-29	91	31
-39	82	-273	11	31
-35	216	-438	56	31
-47	191	-291	-93	31
-125	-29	-104	-208	31
-155	-251	8	-84	31
-164	-405	165	-15	31
-80	-242	222	-27	31
-56	-32	244	-147	31
-62	-67	217	-188	31
-47	-46	74	-94	31
8	-24	54	-45	31
10	4	99	-34	31
8	32	81	-1	31
122	8	-66	35	31
61	29	-120	26	31
-69	29	34	-28	31
-30	35	48	-32	31
71	24	31	-22	31
28	16	147	-2	31
-58	39	189	147	31
18	90	134	335	31
-16	126	59	240	31
-166	78	49	-6	31
-137	17	-48	-1	31
13	-77	-304	22	31
-10	-140	-341	-49	31
-47	-137	-264	-83	31
140	-123	-352	-76	31
151	-26	-326	-45	31
107	199	286	-11	31
124	245	712	117	31
19	51	287	219	31
29	-54	-189	134	31
47	-197	-788	64	31
-39	-203	-838	43	31
-152	-7	-220	-161	31
-101	82	-7	-222	31
-38	98	2	-139	31
-78	52	179	-130	31
48	28	441	-121	31
146	56	479	-86	31
76	74	532	34	31
56	73	370	72	31
103	54	14	145	31
31	26	-125	174	31
89	-32	-93	64	31
107	-88	13	24	31
36	-78	-60	17	31
93	-20	-92	-46	31
21	-4	-84	-64	31
-2	25	-56	92	31
-87	94	3	152	31
-158	136	23	-21	31
-42	-8	79	-137	31
-25	-181	132	-39	31
-115	-94	189	22	31
-51	-2	128	-32	31
55	37	54	-10	31
37	34	-16	48	31
134	-9	-62	157	31
37	13	-112	156	31
-1	10	-242	11	31
62	26	-182	-19	31
-39	9	-100	0	31
-1	-30	-152	15	31
24	-26	-179	20	31
23	60	-164	-28	31
23	309	-64	-29	31
-15	424	59	-2	31
-142	239	167	-1	31
-146	-18	263	-26	31
-117	-321	276	-20	31
-124	-483	239	24	31
-77	-222	265	14	31
-161	-69	238	-25	31
-16	-107	137	-57	31
17	-8	117	-106	31
4	18	117	-150	31
147	16	101	-170	31
87	18	-15	-99	31
44	49	-230	117	31
15	87	-274	384	31
53	131	13	439	31
22	242	311	126	31
52	324	150	-98	31
143	315	-312	-95	31
-79	110	-803	-218	31
-195	-234	-780	-215	31
-155	-523	-313	-33	31
-69	-473	-84	-26	31
67	-170	-67	-64	31
94	-1	-49	13	31
122	-9	46	59	31
50	11	41	69	31
-11	34	137	54	31
60	-7	207	2	31
97	-10	220	-46	31
166	-27	363	-3	31
107	16	356	57	31
-46	72	191	15	31
2	75	-7	-77	31
3	87	-26	-53	31
-58	59	-2	71	31
-68	62	-61	61	31
-66	87	-55	63	31
-28	76	143	60	31
-2	9	322	-31	31
25	-9	242	-84	31
-4	22	144	-79	31
28	0	-22	-63	31
121	4	-170	-26	31
137	2	-222	25	31
85	12	-247	36	31
41	47	-194	51	31
18	51	-220	13	31
-92	34	-207	1	31
-86	5	-42	26	31
-77	12	171	44	31
-71	24	252	-1	31
-19	39	247	-71	31
-104	43	247	-52	31
-94	2	111	63	31
-22	-42	-42	292	31
24	-67	-77	357	31
-6	-66	86	229	31
7	-11	395	66	31
38	27	698	-42	31
-12	25	643	-41	31
80	28	100	-54	31
106	-19	-497	-39	31
64	-27	-1114	-116	31
150	25	-1433	-242	31
176	155	-818	-274	31
-87	438	24	-194	31
-125	429	82	-49	31
86	-61	22	73	31
-46	-292	122	259	31
-164	-330	84	107	31
-79	-510	119	-216	31
65	-330	120	-235	31
-78	-79	226	-159	31
-154	51	260	-167	31
63	157	216	9	31
-28	71	232	183	31
-81	-11	200	28	31
34	-129	124	34	31
31	-190	22	71	31
52	-118	34	124	31
32	-28	37	232	31
-5	49	-16	284	31
32	83	-191	241	31
-67	105	-328	-7	31
-131	124	-163	-119	31
-57	152	34	-110	31
-9	135	202	-98	31
32	115	338	-130	31
26	99	303	-58	31
-30	79	245	-36	31
-54	77	120	-105	31
30	54	-112	-97	31
106	95	-262	-72	31
198	172	-261	52	31
109	25	-144	126	31
-36	-253	-3	101	31
108	-224	126	182	31
69	9	178	154	31
-63	76	170	-25	31
-56	52	200	16	31
-36	140	168	32	31
-16	245	16	130	31
-96	152	-152	105	31
-111	-8	-202	-81	31
-50	-162	-139	-12	31
-114	-288	-96	-16	31
58	-182	-46	-21	31
83	13	-18	-77	31
-44	62	-69	-144	31
154	39	-172	-62	31
82	-19	-265	1	31
62	-144	-118	-28	31
67	-190	299	-75	31
50	-145	445	-80	31
81	-72	216	12	31
-16	0	114	237	31
-4	12	-64	24	31
-163	12	-377	-304	31
-97	7	-335	-81	31
-26	16	239	37	31
-101	24	524	-3	31
6	17	246	-6	31
53	27	-9	-28	31
61	37	-486	17	31
31	23	-759	-11	31
57	9	-353	-62	31
39	45	-21	-67	31
28	1	-44	59	31
62	-71	117	136	31
76	-74	134	61	31
113	-75	81	134	31
44	27	152	221	31
-35	99	-99	146	31
-87	260	-99	73	31
-128	500	-39	100	31
-108	431	-34	46	31
-64	155	170	-74	31
-61	-159	307	-72	31
-7	-430	388	-77	31
-19	-364	237	-147	31
-29	-114	109	-79	31
84	-97	28	88	31
121	-41	-34	57	31
31	99	11	-38	31
-13	215	19	-122	31
116	54	76	-60	31
1	-334	59	57	31
-55	-287	26	-28	31
45	-69	34	-22	31
-62	54	-42	13	31
-1	85	-7	112	31
38	57	71	144	31
-203	91	-148	67	31
-324	71	-261	22	31
-4	84	-163	-51	31
83	102	-29	27	31
-9	96	60	9	31
156	101	16	-25	31
112	132	-52	4	31
48	17	-131	2	31
173	-176	-32	59	31
117	-121	16	101	31
51	-39	-9	123	31
79	15	29	-43	31
-68	48	160	-198	31
-95	5	309	-105	31
-44	-2	193	-46	31
-49	-16	-1	-81	31
-50	-18	-112	-51	31
-48	-10	-122	-46	31
-86	32	24	-79	31
-167	69	184	-61	31
-39	77	127	7	31
-27	160	-117	27	31
-74	135	-332	-27	31
49	-135	-189	38	31
60	-293	368	157	31
117	-107	554	224	31
108	66	35	132	31
-7	51	-347	54	31
43	34	-693	140	31
64	36	-916	204	31
21	19	-413	111	31
-37	-12	-64	-71	31
-52	-51	69	-107	31
-45	-35	357	-224	31
-113	-1	326	-345	31
-89	7	104	-302	31
-29	49	57	-39	31
-93	69	17	198	31
-35	151	-8	117	31
170	450	-2	193	31
68	564	179	99	31
47	224	457	-42	31
112	-150	361	99	31
-76	-502	175	85	31
-27	-706	68	-2	31
34	-467	185	-184	31
106	-194	296	-151	31
131	-54	161	9	31
-53	1	82	-16	31
-20	-1	-180	-41	31
-77	39	-420	-6	31
-82	61	-303	16	31
-44	77	-57	2	31
-141	53	120	40	31
27	39	151	4	31
87	60	160	-44	31
97	71	33	-79	31
122	41	-175	-110	31
109	27	-176	-16	31
130	54	-120	229	31
74	40	-97	349	31
99	65	-115	116	31
30	57	-99	32	31
6	25	-213	12	31
31	29	-313	-123	31
-24	45	-123	-134	31
-76	120	-44	-189	31
-47	99	-2	-121	31
17	41	111	-59	31
-34	-24	200	27	31
24	-101	241	186	31
9	-84	244	104	31
-39	-62	324	59	31
34	-12	312	55	31
49	17	174	24	31
75	6	2	-14	31
67	2	-126	-63	31
7	-32	-347	-73	31
-31	67	-454	-77	31
-22	221	-201	-93	31
-66	44	-1	-67	31
-82	-217	227	-21	31
8	-167	592	-39	31
16	-31	463	-18	31
-87	37	56	-9	31
-133	32	-361	-4	31
-77	7	-806	81	31
-7	21	-590	205	31
11	11	-69	263	31
19	35	101	223	31
43	45	172	91	31
-18	20	202	-65	31
-6	1	156	-149	31
83	-23	124	-169	31
97	-27	114	-113	31
-44	-47	355	-81	31
-97	-16	548	40	31
-46	39	400	204	31
-93	44	109	369	31
-16	25	-88	463	31
-54	9	-268	305	31
-112	20	-613	64	31
-31	11	-641	-169	31
9	-5	-358	-400	31
7	7	-89	-460	31
-15	21	14	-248	31
-7	2	182	-188	31
34	14	423	-229	31
182	188	265	-172	31
19	239	17	-124	31
-184	-157	22	21	31
24	-385	112	55	31
107	25	50	100	31
-82	406	68	183	31
-136	199	149	153	31
-79	-162	-116	113	31
-61	-295	-405	48	31
-21	-390	-477	6	31
-99	-224	-433	-43	31
-52	-2	-198	-99	31
116	-42	-94	-84	31
101	48	-72	-4	31
84	86	102	-14	31
120	62	254	39	31
121	86	440	131	31
119	75	367	176	31
87	75	274	262	31
112	33	367	189	31
114	37	340	46	31
33	23	325	7	31
72	35	257	-69	31
94	56	-15	-264	31
-1	7	-300	-327	31
-182	-28	-440	-232	31
-208	-35	-393	243	31
-32	-19	-398	688	31
6	-2	-410	388	31
-9	67	-136	140	31
-41	94	-74	76	31
19	79	-153	-152	31
177	67	-69	-366	31
166	-9	82	-243	31
94	-51	140	-69	31
44	-52	118	-116	31
36	-36	401	-67	31
81	1	646	-115	31
41	58	432	-21	31
-48	110	17	32	31
-219	86	-349	-146	31
-300	37	-608	-94	31
-202	-49	-363	111	31
-152	-173	-61	102	31
-50	-207	-64	67	31
7	-124	93	52	31
56	-31	200	-22	31
102	-4	231	-9	31
-26	31	300	-31	31
7	61	305	-34	31
166	37	275	4	31
101	48	327	121	31
25	55	215	121	31
129	30	-195	48	31
73	22	-387	64	31
-3	23	-487	49	31
-11	12	-637	-27	31
-77	-22	-435	-184	31
-64	-27	-81	-119	31
-22	21	68	-111	31
-3	31	162	-181	31
-16	11	117	-31	31
19	14	-97	71	31
80	23	-128	57	31
46	23	157	42	31
74	23	251	175	31
142	23	80	79	31
88	-11	108	52	31
89	-53	174	207	31
19	-53	253	174	31
-99	-31	208	183	31
-122	-25	17	48	31
-95	54	-29	-82	31
-87	78	-27	-71	31
-121	-129	-35	-11	31
-89	-184	-78	-124	31
-104	35	-72	-283	31
-49	285	18	-58	31
-1	335	61	216	31
-32	109	16	186	31
-20	-87	-74	76	31
14	-294	-57	-39	31
66	-283	24	-293	31
81	-29	35	-294	31
83	79	193	-95	31
68	200	261	-52	31
51	18	-32	-27	31
24	-186	-344	248	31
2	12	-247	448	31
-4	157	32	284	31
-6	311	6	92	31
10	140	158	-157	31
-51	-282	236	-292	31
-107	-305	52	-119	31
-27	-116	-49	-102	31
52	57	-156	-268	31
-2	74	-27	-214	31
36	2	-18	-121	31
51	-66	-88	-63	31
-15	-87	-17	68	31
41	-49	15	173	31
-6	-21	29	267	31
-74	96	-81	340	31
-118	262	-11	169	31
-42	300	199	12	31
-54	143	150	116	31
-58	-8	114	87	31
65	-163	101	-57	31
-71	-328	185	-215	31
12	-282	302	-240	31
-49	-95	52	-111	31
-207	3	-234	13	31
65	16	-496	21	31
24	19	-647	140	31
43	-26	-236	153	31
76	17	221	-81	31
-81	46	87	-18	31
159	32	88	-4	31
122	79	128	21	31
4	39	-318	131	31
79	9	-312	178	31
17	10	77	24	31
32	31	204	-174	31
-7	76	139	-197	31
-33	84	24	-171	31
-32	84	-82	361	31
-42	77	-233	462	31
-26	65	-218	-166	31
2	53	27	-299	31
34	104	31	-186	31
57	152	-24	72	31
111	129	117	288	31
66	84	214	46	31
52	-1	176	-70	31
119	-123	86	-46	31
119	-182	54	-59	31
5	-170	14	-69	31
38	-58	31	-62	31
63	199	106	-18	31
-127	220	162	2	31
-91	-41	162	-2	31
-45	-248	133	-31	31
-106	-416	58	-18	31
-135	-265	-127	36	31
-127	12	-214	85	31
150	-7	-87	123	31
189	19	128	181	31
50	37	347	225	31
119	26	504	87	31
27	65	352	-174	31
-1	70	79	-227	31
27	70	191	-152	31
18	96	309	-305	31
-26	333	4	-309	31
-106	260	-320	-132	31
-65	-307	-603	-100	31
-62	-434	-682	64	31
34	-2	-270	302	31
-6	318	-63	329	31
-2	325	-3	65	31
-43	235	192	249	31
-159	-56	49	598	31
13	-413	-211	139	31
-44	-357	-354	-164	31
64	-145	-480	-134	31
110	-24	-412	-193	31
11	82	-88	-258	31
44	102	225	-221	31
15	61	420	-37	31
65	-25	468	-16	31
-40	-65	339	48	31
-38	-17	128	41	31
-50	15	-116	42	31
-161	34	-108	67	31
-141	32	72	19	31
-150	32	156	92	31
-131	69	138	69	31
-2	126	18	20	31
64	131	-151	17	31
-1	14	-169	-73	31
184	-90	-42	-90	31
216	0	-11	-71	31
-40	92	-24	-162	31
-37	42	59	-86	31
-21	57	100	-41	31
22	62	61	-70	31
92	23	31	-100	31
-17	10	-54	-47	31
-82	-12	44	114	31
-40	17	259	-54	31
-37	24	150	-13	31
-107	67	-5	209	31
-134	342	-214	139	31
-66	616	-269	89	31
40	383	-55	122	31
-14	-91	-24	187	31
-70	-481	6	54	31
47	-807	2	-94	31
55	-555	95	-151	31
81	-130	195	-213	31
128	-104	242	-66	31
133	-25	313	76	31
124	31	87	285	31
-66	35	-84	460	31
-66	64	-77	427	31
-17	61	-39	328	31
-88	250	87	-97	31
-36	442	474	-282	31
-33	387	526	9	31
-117	200	-89	-127	31
-57	29	-532	-419	31
16	-249	-709	-419	31
-60	-515	-462	-288	31
23	-413	104	-236	31
2	-232	87	-129	31
71	-167	-403	65	31
199	-48	-529	129	31
107	9	-297	417	31
248	26	-99	372	31
128	17	19	-11	31
-26	25	141	-60	31
59	93	184	-36	31
-67	91	169	68	31
-7	77	182	157	31
78	0	174	85	31
-41	-51	205	-176	31
-92	29	176	-182	31
-43	56	140	-86	31
8	80	87	-76	31
29	82	97	169	31
117	58	90	166	31
132	73	43	77	31
71	64	134	-12	31
25	70	66	-21	31
43	48	32	132	31
81	7	36	84	31
56	19	-52	36	31
21	66	-174	67	31
-54	101	-239	12	31
-66	54	-165	-38	31
-119	-27	-154	-1	31
-79	-50	111	-11	31
-26	22	312	-22	31
-259	-97	155	-161	31
-280	-303	-31	-282	31
-57	-170	-192	-259	31
-14	49	-397	-189	31
23	61	-281	108	31
159	89	91	335	31
213	243	-12	135	31
139	106	-49	-171	31
2	-175	40	-54	31
-19	-167	82	-94	31
58	-29	218	-179	31
22	62	248	232	31
-15	55	347	282	31
71	57	214	84	31
-86	52	104	-131	31
-154	-14	57	-314	31
-31	-32	-4	-443	31
-86	-10	25	-348	31
-17	154	-248	181	31
-21	268	-398	439	31
-26	101	-233	690	31
99	-89	-119	476	31
95	-277	-69	-86	31
94	-265	15	-230	31
62	-11	194	-305	31
98	4	372	-61	31
101	-7	277	196	31
-57	40	54	381	31
-57	63	-87	148	31
-66	131	-198	-59	31
-81	-44	-322	137	31
-104	-142	-293	-180	31
-245	-17	20	-271	31
-116	51	164	-91	31
12	89	175	-98	31
-2	46	277	-123	31
41	10	154	-178	31
39	-16	-88	-91	31
141	-36	-302	161	31
174	38	-112	158	31
13	84	236	-64	31
-18	81	172	-11	31
-9	24	171	36	31
-28	-77	53	81	31
161	-119	-147	122	31
126	-79	-183	152	31
-179	-6	-81	168	31
-255	49	12	131	31
-79	48	-31	84	31
16	19	12	-64	31
-82	6	-116	-66	31
-30	2	-127	-84	31
-47	11	64	-129	31
12	4	277	-134	31
153	-10	249	-211	31
91	-26	57	-192	31
134	-12	10	-60	31
70	57	-121	-36	31
9	43	-85	-124	31
39	-17	-32	-161	31
51	-38	76	-119	31
25	22	387	-9	31
3	158	639	74	31
24	111	356	148	31
-69	15	-289	226	31
16	-34	-669	91	31
39	-129	-971	116	31
-42	-99	-543	312	31
-121	10	90	131	31
-27	111	-31	24	31
74	189	89	-14	31
-30	215	74	-71	31
132	204	-11	-79	31
82	-8	179	-89	31
17	-375	-170	54	31
120	-468	-310	47	31
-31	-214	-111	51	31
-124	-35	87	61	31
-119	4	202	183	31
-72	44	176	245	31
-68	38	225	64	31
-107	24	76	-107	31
-92	24	-31	-364	31
-49	42	35	-465	31
-46	51	158	-318	31
-74	32	181	-101	31
5	37	148	-70	31
21	45	116	41	31
47	68	79	214	31
102	174	147	268	31
97	296	194	294	31
76	220	169	148	31
36	65	22	39	31
11	-31	-173	-80	31
-17	-230	-252	-157	31
11	-276	-114	-119	31
4	42	-90	87	31
-44	245	-124	196	31
-88	36	-26	156	31
-40	-179	7	198	31
25	-252	107	-71	31
56	-149	177	-120	31
37	-34	218	-47	31
-59	-222	92	-106	31
82	-189	-143	-21	31
198	84	-226	54	31
109	169	-358	246	31
102	150	-427	166	31
35	131	-82	-122	31
34	172	565	-32	31
158	-5	792	41	31
125	-220	500	-47	31
82	-109	305	37	31
-39	-19	-92	19	31
-309	-31	-568	57	31
-166	-42	-301	116	31
86	-10	-34	67	31
-131	34	-264	20	31
-104	47	-264	-114	31
12	90	37	-108	31
-48	109	-17	-120	31
54	131	-202	-137	31
-9	79	-47	-142	31
-46	-75	-29	-169	31
-20	-108	64	-115	31
-37	9	130	-66	31
30	92	-35	-37	31
-7	142	-165	-144	31
-90	145	-204	-81	31
-73	81	-59	-6	31
-108	-18	32	-132	31
-192	-143	192	-131	31
-127	-100	307	10	31
-96	-29	241	283	31
-42	-70	66	492	31
60	-117	-111	202	31
91	-52	-46	-297	31
147	27	95	-103	31
85	9	184	402	31
131	39	94	316	31
133	23	-105	-6	31
61	2	-129	-46	31
96	23	-84	102	31
-12	21	-182	182	31
-39	29	-196	57	31
51	17	39	-100	31
111	45	12	-35	31
-127	63	-158	21	31
-192	70	-21	-66	31
108	155	112	-70	31
89	109	146	-52	31
107	-189	207	-49	31
116	-264	184	-44	31
2	78	108	31	31
59	448	7	130	31
0	483	-159	141	31
-34	68	-182	-15	31
56	-350	-45	-212	31
46	-335	137	-120	31
64	50	355	-24	31
29	160	348	-11	31
-65	-102	164	64	31
-54	-131	106	96	31
-47	-188	170	74	31
-97	-225	170	-107	31
-182	-52	-42	-277	31
-52	-36	-252	-223	31
70	-112	-629	-119	31
-15	-155	-779	32	31
-4	-149	-190	152	31
18	-71	64	-45	31
49	20	-8	-34	31
53	76	19	61	31
65	152	-248	-57	31
38	190	-331	-127	31
-11	152	-90	-70	31
24	91	233	101	31
-61	-25	327	12	31
-40	-59	204	15	31
-29	-7	183	24	31
-134	51	170	-16	31
-94	78	256	67	31
-84	11	335	117	31
-51	-3	343	334	31
-82	120	138	319	31
-76	263	-128	-2	31
49	234	-301	-214	31
52	84	-350	-102	31
150	-23	-371	29	31
120	-115	-390	-16	31
57	-234	-22	28	31
89	-298	215	52	31
-24	-130	279	85	31
-22	12	289	86	31
-20	48	133	46	31
-113	52	13	13	31
-49	-42	-151	-96	31
-37	-43	-292	1	31
-94	-57	-333	135	31
-31	-44	-171	-27	31
-57	16	2	-47	31
-17	36	101	47	31
124	97	176	-41	31
130	118	210	19	31
6	144	315	117	31
-22	199	413	44	31
153	239	607	47	31
99	-19	531	91	31
29	-322	82	-125	31
60	-190	-335	-237	31
59	11	-743	-153	31
37	56	-676	-59	31
-10	30	-404	-79	31
56	121	-357	-97	31
-20	339	-124	36	31
-32	320	44	12	31
-27	54	119	71	31
-161	-221	338	218	31
14	-445	396	249	31
66	-379	156	77	31
5	-129	43	-115	31
92	-82	219	-54	31
40	-41	215	-133	31
119	-36	-20	-154	31
111	-41	-287	-62	31
-9	31	-245	-28	31
7	29	-59	189	31
13	88	-96	333	31
-29	112	-49	196	31
-46	79	-22	-105	31
-47	42	86	-143	31
-72	-9	144	-19	31
-97	2	102	-13	31
-54	4	163	7	31
6	12	144	5	31
-37	43	174	52	31
41	101	286	70	31
99	144	339	34	31
44	98	159	-21	31
29	54	-52	-84	31
-41	-16	-372	-64	31
22	1	-622	-102	31
76	189	-372	-150	31
114	277	-50	3	31
-24	84	71	179	31
-188	-307	6	170	31
27	-401	5	144	31
-87	-118	-74	37	31
-158	119	-164	-6	31
-71	92	-80	120	31
-54	-71	-66	-29	31
70	-137	122	-375	31
24	-167	322	-465	31
13	-135	292	-95	31
-1	13	147	267	31
14	99	-99	113	31
131	-57	-249	-74	31
54	-145	-17	-25	31
-89	-30	234	22	31
-19	4	50	-9	31
57	34	-144	9	31
49	43	-134	70	31
29	47	-172	66	31
-126	68	-214	12	31
-217	62	187	-107	31
-169	54	675	-126	31
-146	17	506	27	31
-91	74	92	54	31
-32	167	-224	-58	31
-11	-19	-450	67	31
-37	-253	-112	185	31
-14	-107	269	141	31
47	104	133	153	31
21	119	39	272	31
57	93	-324	287	31
64	162	-610	-67	31
9	361	-292	-251	31
-28	360	-154	-201	31
-18	99	-179	-226	31
6	-136	-130	-144	31
-42	-377	-28	64	31
-40	-378	133	177	31
-44	-84	358	102	31
3	-12	559	122	31
5	-59	463	-37	31
-169	-79	249	-275	31
58	-82	64	-216	31
327	-34	-184	-19	31
93	-19	-288	196	31
122	36	-223	-31	31
159	51	-227	-136	31
92	186	-179	99	31
118	207	24	128	31
-27	-39	398	99	31
27	-62	563	-152	31
47	62	511	-169	31
-83	79	445	51	31
6	-17	-6	310	31
71	22	-462	379	31
41	166	-632	-73	31
59	148	-632	-251	31
-56	90	-205	-104	31
-65	137	343	-86	31
64	59	539	-114	31
181	-187	190	21	31
69	-180	-263	96	31
-73	-181	-680	25	31
66	-360	-929	11	31
36	-249	-350	-49	31
57	-35	194	-53	31
96	12	379	-12	31
-44	54	502	78	31
-70	130	319	59	31
-42	210	69	-2	31
-61	241	-109	19	31
-55	179	-38	-4	31
-78	91	158	107	31
-137	-66	197	41	31
33	-179	228	-79	31
109	-153	140	0	31
63	1	-17	-38	31
98	150	-107	-71	31
66	45	-127	-9	31
60	49	38	29	31
48	278	96	-30	31
41	416	29	-31	31
52	313	-20	-59	31
-10	-108	-17	-38	31
-76	-588	109	43	31
-52	-807	140	2	31
-74	-464	135	25	31
-117	-126	138	29	31
-67	-96	56	124	31
-94	73	52	132	31
-70	98	159	-29	31
73	82	21	-72	31
60	84	-152	-79	31
11	52	-84	-126	31
74	91	-145	-111	31
116	67	-219	32	31
107	56	-127	117	31
32	9	64	319	31
-82	11	14	368	31
-21	67	-232	113	31
-27	86	-76	84	31
-110	109	-9	46	31
-89	54	-184	18	31
-109	16	-112	17	31
-54	34	-52	-86	31
-37	19	14	-91	31
-70	22	-9	2	31
-71	34	-67	-2	31
71	57	22	-111	31
92	65	71	-36	31
14	51	325	-32	31
116	62	505	-64	31
51	42	60	-62	31
69	10	-317	-69	31
39	-32	-357	87	31
-56	-57	-590	97	31
-46	-27	-254	-93	31
-30	12	435	-77	31
-43	66	453	67	31
-115	92	363	-22	31
-99	26	186	-30	31
-126	-85	-134	58	31
19	-119	-189	24	31
148	-66	-111	12	31
-68	-23	113	-155	31
-235	-8	224	-299	31
-17	17	186	-82	31
40	34	61	193	31
19	41	-163	177	31
168	46	-256	34	31
41	74	-327	134	31
52	164	-259	70	31
82	51	-310	-162	31
24	-206	-282	-86	31
-46	-65	162	-121	31
-109	299	338	-26	31
-109	342	302	99	31
-67	138	222	7	31
41	-70	43	-10	31
-103	-320	95	24	31
-79	-446	178	274	31
39	-250	58	139	31
16	-59	-1	-166	31
21	-45	124	-72	31
72	-2	108	-16	31
124	16	-52	-41	31
53	62	-59	-87	31
87	223	4	4	31
51	274	42	66	31
-28	140	57	41	31
-9	-97	166	50	31
39	-126	279	-27	31
101	-152	151	-131	31
-69	-345	46	-194	31
-167	-186	-116	-128	31
-16	-68	-478	-62	31
-14	-94	-519	21	31
13	25	24	132	31
53	40	735	178	31
29	109	916	155	31
79	153	535	97	31
56	116	-169	119	31
86	107	-960	55	31
-4	72	-1156	-77	31
-96	61	-506	27	31
19	53	-82	169	31
54	120	-209	81	31
49	316	-106	136	31
-80	424	37	227	31
-97	258	187	172	31
-7	71	129	87	31
-119	-92	-94	-44	31
-52	-443	-34	-422	31
21	-610	37	-434	31
6	-367	61	-14	31
98	-166	-97	-216	31
107	-54	-46	-227	31
101	36	244	-17	31
22	10	226	-25	31
82	53	180	56	31
180	100	194	41	31
34	117	151	37	31
-42	184	87	-9	31
-152	185	-6	-71	31
-113	-104	-27	-36	31
21	-352	-53	189	31
-88	-160	24	154	31
-61	76	139	34	31
-39	159	123	101	31
-23	179	232	14	31
-6	406	177	46	31
-66	662	-1	-3	31
58	361	-37	-49	31
76	-103	-92	76	31
99	-437	-96	100	31
175	-716	-40	29	31
54	-452	66	11	31
-104	-26	56	3	31
-16	39	-44	45	31
89	84	-87	69	31
-17	-102	-139	-46	31
-59	-246	-44	-47	31
-63	-6	151	-97	31
-93	135	332	-142	31
-134	133	435	-194	31
-116	56	182	-203	31
-54	24	-178	-57	31
27	49	-453	153	31
11	27	-747	409	31
-31	56	-575	222	31
58	106	71	-134	31
79	100	757	-82	31
82	38	902	-167	31
39	69	498	-277	31
1	335	196	-17	31
34	528	-382	160	31
27	342	-847	312	31
-23	44	-562	511	31
-50	-244	-244	380	31
-31	-411	-305	33	31
-64	-310	-380	-177	31
-31	-84	-184	-106	31
-41	104	-7	-13	31
-151	-14	221	-72	31
-67	-222	314	6	31
66	-208	148	89	31
145	-115	-123	214	31
121	-106	-360	112	31
10	-24	-177	-421	31
111	126	205	-242	31
144	100	434	-51	31
69	57	420	-290	31
33	84	365	-212	31
-62	17	210	-187	31
-42	-34	-69	-57	31
-61	195	-44	-57	31
-60	300	55	-22	31
1	113	-89	24	31
-54	-59	-48	178	31
-21	-382	114	217	31
29	-426	146	-64	31
-14	-181	155	12	31
-57	-67	76	26	31
76	26	9	91	31
252	22	11	76	31
89	41	82	53	31
-13	51	99	71	31
-13	39	-46	19	31
-82	67	-236	79	31
92	62	-388	135	31
121	97	-346	217	31
-87	96	-164	139	31
-191	71	2	119	31
-83	72	96	3	31
44	140	275	-171	31
-84	284	438	-126	31
-77	299	295	-207	31
68	127	127	-290	31
55	-39	18	-193	31
17	-219	-21	-41	31
47	-350	119	98	31
59	-185	297	114	31
51	-7	57	131	31
90	-12	-381	221	31
59	11	-773	251	31
-2	15	-1243	273	31
1	3	-806	131	31
-55	27	-10	77	31
-54	7	315	-68	31
-65	-13	571	-280	31
-157	0	578	-155	31
-111	-29	451	-129	31
-103	-114	377	-7	31
-62	-70	285	45	31
39	4	238	-133	31
54	11	16	-85	31
100	44	-345	91	31
127	72	-402	-107	31
110	82	-355	-356	31
102	16	-119	-118	31
62	19	178	-69	31
14	235	154	50	31
0	432	143	261	31
-16	316	-17	175	31
-36	77	-224	-86	31
-59	-199	-148	-56	31
-21	-548	-105	295	31
-86	-409	-144	129	31
-225	-132	-34	13	31
-94	-82	14	30	31
6	38	29	69	31
-22	38	162	101	31
34	68	24	-72	31
36	115	-123	-209	31
47	145	-61	-251	31
63	158	18	-124	31
-7	56	133	-87	31
-11	47	200	24	31
27	22	199	21	31
-10	79	141	-16	31
-24	186	184	25	31
8	-45	190	-14	31
27	-385	91	17	31
-72	-322	61	12	31
-107	-87	7	60	31
54	8	13	84	31
14	109	438	247	31
-56	125	776	405	31
47	-94	325	257	31
72	-258	-190	-86	31
133	-71	-773	-290	31
112	67	-886	-198	31
90	26	164	-191	31
112	47	681	-307	31
80	62	324	-219	31
8	168	-66	352	31
-100	268	-683	916	31
-7	204	-1185	643	31
-4	208	-924	-194	31
-68	182	-213	-585	31
-119	-97	112	-335	31
-99	-151	97	-331	31
11	58	374	-285	31
-80	-57	285	69	31
-63	-122	19	43	31
24	-12	62	62	31
66	-258	59	64	31
153	-473	277	44	31
95	-383	354	93	31
60	-124	197	51	31
64	90	28	81	31
-16	172	-96	35	31
9	385	-111	-4	31
20	357	-38	-29	31
-34	46	102	10	31
-59	-153	29	21	31
-56	-315	-84	-1	31
-68	-280	-198	18	31
-107	-24	-140	-19	31
-59	29	36	-71	31
-7	2	87	-61	31
-1	42	133	15	31
86	39	121	6	31
146	84	142	4	31
73	87	81	23	31
32	26	-31	41	31
41	-2	-29	19	31
-10	-29	-11	-47	31
-69	-2	49	-46	31
-44	92	138	-9	31
-14	117	237	83	31
-18	107	284	154	31
-42	132	87	217	31
-80	121	-114	206	31
-60	147	-139	47	31
-17	111	-108	-43	31
-5	-85	-69	-112	31
16	-115	162	-189	31
31	3	600	-83	31
50	29	395	66	31
99	19	-179	87	31
132	-14	-438	122	31
131	-31	-507	223	31
72	-23	-312	-45	31
18	6	-185	-592	31
-39	62	26	-491	31
-6	64	-107	-104	31
-22	14	-722	36	31
-166	-19	-526	67	31
-107	-11	-137	172	31
8	-54	-51	272	31
-88	-105	198	121	31
-232	-106	428	94	31
-29	-104	416	26	31
136	115	419	82	31
4	333	435	104	31
7	-39	230	37	31
24	-426	-95	51	31
29	-121	-416	-47	31
38	564	-390	-46	31
45	1112	7	-107	31
68	921	431	-92	31
-21	205	447	-33	31
-70	-440	453	68	31
9	-1153	445	230	31
23	-1237	249	270	31
-34	-494	212	259	31
-22	-146	222	250	31
-84	-81	-79	126	31
3	49	-726	-199	31
92	9	-902	-301	31
-5	61	-1044	-127	31
2	68	-1200	-312	31
-57	46	-461	-528	31
-1	100	460	-394	31
41	87	581	-279	31
-50	76	317	-9	31
7	56	272	11	31
131	57	251	-42	31
126	11	315	-6	31
-24	3	363	111	31
10	74	311	282	31
12	82	156	267	31
-37	79	-80	250	31
-8	29	-197	173	31
-47	19	-277	192	31
3	43	-141	96	31
24	48	46	-21	31
7	82	6	-5	31
11	116	-111	-64	31
-5	134	-95	-255	31
29	156	117	-170	31
119	229	232	38	31
181	114	475	97	31
74	-216	432	173	31
-20	-334	87	87	31
-94	-124	-43	74	31
-126	31	-321	6	31
3	62	-335	-61	31
-4	110	-156	-6	31
-92	89	-162	-1	31
-90	66	-177	-80	31
-19	114	4	-87	31
88	189	105	9	31
77	132	-36	37	31
-28	180	-51	74	31
-46	412	26	104	31
-72	86	100	112	31
-10	-526	86	34	31
159	-604	132	-6	31
74	-457	109	-12	31
33	-342	131	-29	31
11	-115	337	-10	31
-38	-51	437	-22	31
-15	-48	150	7	31
-126	67	-264	-6	31
-87	165	-436	-11	31
36	232	-696	10	31
36	126	-550	2	31
-55	137	-154	-6	31
-52	202	66	-4	31
24	-31	195	-1	31
11	-139	214	6	31
48	-74	169	108	31
35	-254	23	207	31
-37	-310	-71	107	31
54	-47	-280	-114	31
135	51	-210	-221	31
14	54	44	-238	31
-22	64	195	-162	31
-19	61	321	-61	31
-114	82	279	171	31
-105	64	272	568	31
-79	68	154	532	31
-41	74	-161	124	31
2	61	-403	-73	31
-78	52	-409	-65	31
-102	47	-341	-64	31
18	45	-242	-166	31
103	67	-147	-480	31
112	152	68	-543	31
103	190	428	-48	31
79	112	733	44	31
52	-7	814	-18	31
19	-109	538	261	31
32	-164	419	237	31
16	-166	199	222	31
-84	-84	-184	156	31
-61	72	-345	-69	31
-12	160	-532	-283	31
-95	209	-659	-387	31
-126	188	-651	-238	31
6	-92	-434	-14	31
54	-242	-34	412	31
-26	-18	170	443	31
56	156	337	62	31
104	63	482	-27	31
84	-4	65	141	31
62	0	-245	-84	31
8	-172	-42	-285	31
23	-267	127	-136	31
65	-163	-1	-385	31
51	-84	-102	-232	31
-109	-57	103	132	31
-84	-69	124	206	31
6	54	101	127	31
21	297	84	96	31
151	458	-110	57	31
72	307	-158	-179	31
4	10	-78	-99	31
26	-117	6	169	31
44	-272	-41	295	31
84	-7	40	222	31
81	572	235	196	31
79	584	223	48	31
-61	255	142	-212	31
-17	-192	-7	-412	31
-17	-762	65	-216	31
-113	-947	-3	84	31
-47	-518	-227	22	31
-170	-128	-62	207	31
-195	-34	169	227	31
-116	50	220	70	31
-144	57	243	-3	31
-91	97	312	-40	31
32	122	360	-24	31
79	132	237	-147	31
-2	174	-77	-138	31
27	141	-334	-99	31
83	74	-569	-44	31
14	-91	-200	128	31
24	-173	348	305	31
81	-119	97	395	31
95	-28	-126	626	31
76	102	-217	658	31
120	135	-563	-70	31
174	179	-661	-732	31
-74	197	-521	-706	31
-209	-47	-482	-436	31
-50	-228	-377	-293	31
-70	-91	-89	59	31
-107	55	192	64	31
-57	81	376	-79	31
-14	203	441	93	31
-20	375	325	36	31
-1	287	256	82	31
87	79	202	-2	31
152	-152	67	-149	31
146	-376	114	-255	31
64	-163	168	-179	31
52	46	-6	-15	31
45	-71	-67	176	31
52	-87	54	549	31
-60	-125	50	283	31
-186	-136	119	14	31
-45	36	198	25	31
-40	299	247	-9	31
-82	232	162	21	31
-15	-61	-74	11	31
-53	-77	-194	19	31
-57	-164	-285	-38	31
-64	-252	-285	-44	31
-6	-100	-140	-47	31
172	-1	26	1	31
217	14	87	45	31
84	29	235	54	31
22	15	390	196	31
-6	27	172	299	31
-55	53	-243	76	31
27	75	-303	-185	31
57	126	-97	-177	31
-32	134	130	-195	31
-17	122	153	-162	31
18	119	22	-71	31
-96	95	41	-31	31
-162	49	34	42	31
-62	11	130	49	31
45	6	159	17	31
92	4	121	-26	31
151	-14	-49	-56	31
64	-45	-87	-11	31
-31	-38	327	83	31
113	-19	167	159	31
42	-2	-254	143	31
-36	22	-82	77	31
18	31	224	79	31
41	107	-1	-31	31
101	185	-299	-279	31
-169	191	-332	-188	31
-230	208	-558	-15	31
-41	87	-219	67	31
-30	-179	243	141	31
11	-252	108	28	31
2	-167	-81	-37	31
80	-114	-347	-148	31
76	-219	-418	-138	31
47	-347	-162	22	31
85	-166	159	94	31
42	137	303	167	31
37	378	232	90	31
7	347	199	34	31
-29	-45	29	12	31
-20	-267	-183	21	31
-99	-317	-241	249	31
-164	-197	-161	182	31
-94	112	12	-22	31
-129	97	136	32	31
-87	61	322	-161	31
-34	28	362	-362	31
-61	-46	193	-206	31
-6	131	136	-81	31
6	169	131	-59	31
52	92	121	1	31
88	-7	222	19	31
89	-168	275	4	31
61	-238	66	26	31
25	-31	-102	59	31
26	319	-136	75	31
56	129	-184	-6	31
36	-245	-165	5	31
-72	-356	11	271	31
-104	-283	106	287	31
-123	21	-94	99	31
-59	94	-106	194	31
-3	39	-46	218	31
-97	72	-72	-47	31
-4	27	-6	-416	31
82	32	-4	-373	31
-12	46	-7	-40	31
59	51	-46	86	31
198	63	-111	141	31
96	49	-107	42	31
-137	45	-6	-138	31
-8	26	-169	-67	31
147	50	-467	156	31
-66	73	-247	-127	31
-49	76	250	-565	31
37	46	302	-87	31
-12	16	197	249	31
-14	31	215	17	31
-83	16	127	68	31
13	41	109	-7	31
74	49	-26	144	31
-39	46	-106	183	31
-32	121	-8	-129	31
72	150	170	-41	31
47	104	496	140	31
18	41	488	176	31
133	-41	86	126	31
52	-108	-282	75	31
1	-81	-595	-19	31
19	31	-638	-124	31
16	24	-121	-196	31
81	-206	300	-99	31
17	-225	300	5	31
-22	-6	385	-56	31
-56	31	167	-12	31
-52	-6	-255	66	31
31	30	-482	142	31
64	47	-726	247	31
73	44	-378	221	31
52	97	84	-30	31
67	270	149	-201	31
76	351	242	-106	31
42	235	286	34	31
5	149	311	16	31
-56	-67	264	-24	31
-44	-302	169	42	31
-80	-318	-4	18	31
-91	-485	15	31	31
-16	-531	324	104	31
-77	-230	358	172	31
-78	-13	71	44	31
-52	71	-79	-116	31
-41	59	-248	-63	31
-9	-16	-546	-115	31
-8	-8	-358	-16	31
36	39	-172	106	31
54	58	-297	64	31
-3	104	-220	-127	31
-19	102	-81	-230	31
128	81	114	0	31
83	124	187	-76	31
-8	77	153	-186	31
3	-65	206	2	31
-26	-42	156	24	31
24	162	168	21	31
-24	165	229	87	31
-55	-105	91	120	31
-83	-214	-206	187	31
-114	-70	-345	134	31
-79	128	-440	-35	31
-34	329	-371	-237	31
21	298	54	-178	31
104	99	297	-11	31
136	-62	250	33	31
-6	-280	54	248	31
1	-349	-48	136	31
56	-147	275	-58	31
9	91	585	10	31
57	280	465	44	31
62	392	425	157	31
33	426	373	325	31
47	525	-37	450	31
-27	301	-415	224	31
-102	-371	-650	-181	31
-79	-823	-753	-360	31
-118	-822	-491	-294	31
-85	-463	52	-259	31
89	-88	326	-354	31
86	-46	232	-176	31
42	-31	121	142	31
60	59	72	175	31
89	46	-32	9	31
59	96	-83	42	31
9	232	32	48	31
70	423	85	-122	31
16	443	34	-171	31
11	185	67	-21	31
26	-9	138	97	31
-59	-242	180	63	31
-45	-377	119	113	31
-65	-249	270	120	31
-112	-112	730	81	31
-94	21	513	-47	31
-15	112	-172	-16	31
26	99	-718	176	31
-86	33	-1132	1	31
-84	52	-781	-161	31
57	79	-122	-124	31
73	69	137	-60	31
80	91	112	17	31
84	72	-12	2	31
116	33	-154	-7	31
62	-12	-147	2	31
-81	-4	7	11	31
-67	9	30	11	31
-129	1	103	-26	31
-131	27	201	-24	31
-62	46	346	72	31
-32	45	307	244	31
6	5	124	178	31
-9	-31	1	-47	31
-59	-45	-226	-101	31
-5	-22	-254	-129	31
200	21	-79	-82	31
117	24	122	41	31
71	-12	264	146	31
126	-46	378	293	31
-7	-9	486	329	31
62	-4	411	213	31
39	-12	46	59	31
-84	38	-349	-146	31
-46	59	-515	-417	31
-126	46	-649	-470	31
-148	4	-413	-107	31
-30	2	-159	117	31
-2	17	-116	-71	31
38	38	195	-9	31
-1	121	340	139	31
-71	245	207	101	31
21	251	-27	92	31
84	127	86	-20	31
83	148	320	-29	31
112	0	347	33	31
149	-337	189	102	31
52	-362	-39	50	31
-57	-383	-62	-123	31
4	-302	-149	-146	31
-4	106	-62	-197	31
-34	25	33	-63	31
-66	-169	204	74	31
-98	89	149	71	31
-199	147	-183	211	31
-241	6	-280	192	31
-11	13	-448	82	31
54	170	-317	0	31
29	148	431	-88	31
51	-16	941	-51	31
82	-80	495	93	31
127	-160	-136	52	31
80	-182	-686	-73	31
64	-167	-852	-106	31
74	-8	-246	-142	31
45	254	109	-215	31
7	285	99	-139	31
6	131	131	61	31
21	-16	135	-23	31
-37	-194	179	-26	31
-117	-284	127	-50	31
-83	-61	22	-76	31
26	195	-14	-61	31
14	288	2	-122	31
-65	270	226	-32	31
7	36	473	80	31
97	-186	516	471	31
84	-301	281	603	31
81	-367	-92	237	31
87	-174	-352	82	31
24	37	-488	-141	31
-4	10	-666	-204	31
-4	38	-840	-139	31
-36	104	-600	-367	31
8	58	-180	-229	31
15	46	29	71	31
-86	44	190	195	31
-139	57	412	281	31
-68	85	516	185	31
-57	104	395	-12	31
-67	271	250	145	31
18	450	112	250	31
51	308	-111	-34	31
58	172	-215	-240	31
57	254	-199	-274	31
57	29	-187	-124	31
-3	-305	-54	-70	31
21	-317	97	-50	31
116	-284	194	24	31
31	-501	209	-4	31
-51	-573	106	33	31
-99	-235	12	14	31
-16	-43	12	-37	31
-25	62	93	-80	31
-143	99	177	-62	31
-21	21	212	-59	31
50	96	175	-7	31
9	150	21	267	31
37	182	-229	365	31
64	141	-397	361	31
24	66	-355	175	31
81	-16	12	-235	31
126	-90	329	-190	31
84	-47	276	-110	31
67	-23	153	-119	31
51	25	236	-89	31
-1	57	458	-21	31
-81	69	265	137	31
-29	99	66	45	31
-28	87	-9	75	31
-69	72	-478	6	31
-69	53	-605	-239	31
-54	54	-412	-291	31
-26	94	-437	-129	31
-17	200	-257	-24	31
67	206	7	54	31
75	56	45	113	31
76	-47	41	20	31
82	-182	35	55	31
59	-244	34	25	31
-4	-169	101	12	31
-124	-142	339	-26	31
-47	-58	514	-54	31
-43	60	214	89	31
-82	92	-106	42	31
56	97	-316	-47	31
-11	133	-241	44	31
-112	238	219	81	31
-141	196	159	91	31
-86	-88	-109	129	31
-5	-293	-70	59	31
24	-417	160	95	31
112	-299	336	110	31
101	-2	230	-80	31
114	11	188	-251	31
-1	47	-152	-112	31
62	131	-637	22	31
151	283	-556	-80	31
-106	539	-463	-59	31
-49	409	-342	88	31
-39	323	52	104	31
-74	237	334	-151	31
-6	-335	450	-245	31
-69	-620	294	-44	31
-122	-486	183	92	31
-60	-420	262	118	31
212	-305	324	77	31
48	-103	352	324	31
-99	-61	-14	513	31
74	-103	-408	200	31
-25	-46	-374	-24	31
87	7	-349	-59	31
174	62	-392	-192	31
46	102	-192	-459	31
-16	129	131	-251	31
-6	124	94	169	31
14	94	-149	47	31
-72	96	-144	141	31
-87	66	-9	139	31
-88	77	78	-81	31
-117	193	179	42	31
-77	300	412	196	31
-2	233	527	302	31
51	76	402	262	31
86	-66	292	39	31
26	-231	94	-300	31
7	-214	-302	-400	31
81	-42	-519	-292	31
36	11	-347	-117	31
16	27	-163	-46	31
27	72	34	-197	31
17	61	475	-116	31
1	41	787	-129	31
-77	55	586	24	31
-119	173	-42	185	31
7	294	-435	118	31
81	138	-663	216	31
-92	-105	-757	147	31
-176	-278	-106	82	31
-31	-355	398	20	31
24	-120	367	127	31
-2	59	113	349	31
67	-7	-377	49	31
92	-97	-637	-434	31
85	-104	-475	-471	31
64	28	-168	-267	31
54	68	-132	-117	31
112	118	-15	70	31
135	317	131	299	31
7	426	131	233	31
-147	275	197	-13	31
-61	160	144	-132	31
-56	-26	212	-31	31
-66	-514	275	111	31
20	-460	246	116	31
-19	-16	224	221	31
-2	86	104	150	31
8	-3	66	78	31
36	-277	220	86	31
-11	-315	324	-20	31
-24	55	132	57	31
97	228	-89	191	31
54	81	-276	59	31
41	-122	-410	-202	31
14	-277	-268	-207	31
-86	-191	99	-229	31
-49	46	351	-300	31
-8	16	261	-146	31
-69	118	83	-86	31
-64	374	-99	-108	31
-48	314	-194	-26	31
-92	126	-32	137	31
-88	-24	13	230	31
-44	-200	-169	166	31
7	-361	-283	109	31
70	-191	-161	32	31
69	61	22	1	31
17	87	162	-144	31
77	94	313	-222	31
129	151	252	2	31
38	238	93	42	31
-1	132	29	156	31
12	9	-16	258	31
-37	-44	104	76	31
-44	-229	111	44	31
-61	-210	-280	-8	31
-21	-1	-423	21	31
29	45	-452	61	31
-58	39	-633	-86	31
-59	46	-337	-96	31
40	26	47	-49	31
-5	99	64	6	31
34	152	89	7	31
111	222	345	41	31
0	330	403	12	31
-37	132	237	-134	31
117	-145	131	-69	31
207	-98	-96	127	31
58	57	-189	65	31
-61	1	86	-42	31
-6	-198	276	67	31
31	-345	126	96	31
-45	-353	144	201	31
41	-107	211	86	31
67	54	102	-196	31
-127	5	-20	-217	31
-211	26	-268	-141	31
-31	21	-389	29	31
137	129	162	99	31
-4	275	711	102	31
-57	303	372	98	31
52	303	26	107	31
117	-8	-454	164	31
56	-451	-841	52	31
17	-485	-508	-68	31
12	-161	-392	-63	31
-66	224	-242	-92	31
-29	345	201	-142	31
-29	120	383	-157	31
-20	-95	318	-110	31
-31	-272	315	-62	31
-144	-290	441	-59	31
-68	-39	447	-64	31
7	9	162	70	31
-70	-14	-74	296	31
-42	44	-347	-69	31
51	28	-373	-366	31
136	41	-45	31	31
106	34	16	164	31
-17	49	-86	208	31
4	57	-197	216	31
5	38	-202	63	31
-52	32	-186	67	31
7	16	-175	-181	31
0	55	86	-375	31
-110	82	264	-224	31
-46	58	194	67	31
-39	56	91	252	31
-82	117	54	129	31
36	335	116	101	31
-11	495	240	92	31
-32	333	239	-42	31
104	194	47	40	31
147	-257	-185	289	31
66	-930	-172	214	31
-77	-744	-24	-132	31
-5	-86	-82	-36	31
146	229	-90	240	31
64	227	-216	146	31
-36	145	-260	-292	31
-10	44	135	-550	31
-10	-127	373	-280	31
-27	-152	240	-40	31
-18	-51	62	78	31
-53	-155	-79	-29	31
-36	-185	-191	-121	31
34	54	-32	120	31
94	76	102	170	31
107	-94	-157	41	31
97	-110	-196	-2	31
66	119	61	106	31
77	363	210	84	31
114	245	428	58	31
4	0	570	146	31
-23	-204	339	186	31
47	-350	336	282	31
13	-147	177	285	31
-35	32	-599	187	31
-96	29	-797	-122	31
-90	114	-645	-335	31
-42	90	-380	-211	31
-61	53	-35	-221	31
-39	67	106	-234	31
-49	69	254	26	31
-48	113	69	96	31
30	122	-177	-92	31
13	100	-235	-92	31
-52	53	-296	-84	31
42	27	-272	-65	31
78	-6	31	63	31
-20	-19	400	63	31
4	29	449	-56	31
-32	64	288	-111	31
-41	104	204	54	31
-36	109	186	61	31
-96	86	127	-85	31
-73	21	99	-92	31
-114	-57	64	-82	31
-44	-56	-39	-72	31
80	-4	-189	-6	31
23	94	-234	172	31
29	101	-104	144	31
64	-16	22	122	31
42	71	164	223	31
92	406	243	122	31
30	457	157	91	31
19	118	18	301	31
71	-37	-164	322	31
-32	-232	-225	-68	31
-57	-832	-99	-289	31
-20	-1059	36	-334	31
9	-546	183	-307	31
-162	-79	171	-17	31
-203	-34	-61	194	31
117	127	-179	212	31
29	428	-164	77	31
-38	480	-38	17	31
35	299	18	4	31
-4	19	36	-33	31
158	-294	151	-36	31
78	-503	244	-61	31
44	-337	314	-6	31
99	-47	254	-34	31
-14	51	-13	-34	31
-29	97	-286	87	31
-37	112	-399	130	31
-49	101	-418	-17	31
-4	112	-212	-78	31
22	102	242	39	31
-112	104	551	-67	31
-115	100	331	-52	31
-79	74	-1	117	31
-80	68	-363	81	31
89	55	-747	-119	31
57	68	-500	-304	31
63	92	81	-116	31
161	87	340	-190	31
119	94	355	-329	31
39	67	166	1	31
7	80	-81	229	31
96	262	-296	382	31
40	403	-511	262	31
-6	380	-266	56	31
42	187	79	-40	31
13	-240	297	-167	31
-67	-456	493	-62	31
-84	-333	282	-9	31
-28	-24	-179	5	31
-52	416	-406	70	31
-60	489	-108	46	31
16	106	49	-30	31
24	-655	28	42	31
24	-1221	107	172	31
76	-804	118	117	31
52	-74	455	86	31
78	278	609	81	31
136	567	390	16	31
5	581	220	-285	31
-92	288	-272	-340	31
29	130	-708	294	31
-64	-131	-385	483	31
-229	-479	-87	-172	31
-111	-571	-44	-264	31
-72	-441	105	-56	31
-134	-197	-1	-112	31
-67	42	178	16	31
27	64	321	-52	31
63	44	14	-34	31
81	77	117	-61	31
24	89	161	-107	31
-29	142	27	-14	31
64	174	103	9	31
156	149	144	71	31
75	74	175	60	31
16	30	247	86	31
37	84	176	103	31
11	290	-86	165	31
5	526	-415	69	31
-11	917	-686	1	31
-15	1136	-577	11	31
-106	316	-229	13	31
-165	-445	114	56	31
-40	-246	232	-11	31
-52	-56	197	26	31
-59	73	293	-52	31
71	277	62	-119	31
66	52	-225	-127	31
-49	-262	-158	-68	31
42	-769	182	-13	31
149	-1265	225	-12	31
38	-998	-111	55	31
-6	-588	-101	66	31
-19	-326	-330	39	31
-93	-25	-715	-107	31
-104	74	-646	-157	31
-71	71	-217	-32	31
-61	192	179	89	31
-48	85	454	204	31
-17	136	513	377	31
-33	471	543	497	31
-34	388	946	214	31
34	296	758	-287	31
91	37	225	-379	31
89	-357	-343	-128	31
71	-348	-604	-30	31
71	-197	-280	-56	31
34	162	-80	4	31
16	737	80	-51	31
26	1338	-138	-107	31
83	1328	-518	-92	31
42	696	-613	49	31
-96	-287	-234	407	31
-117	-1109	207	283	31
-26	-1091	574	-4	31
-7	-1028	810	128	31
-24	-560	347	126	31
38	37	-360	153	31
21	169	-593	-44	31
66	280	-285	-513	31
74	162	-175	-332	31
-8	-169	-175	-127	31
49	-820	-25	-194	31
145	-796	291	-81	31
94	-345	273	-81	31
-64	-111	239	-71	31
-132	140	409	-63	31
-132	39	206	-29	31
21	133	147	80	31
127	180	-7	95	31
6	136	-89	122	31
-64	235	202	25	31
12	189	528	-131	31
-26	232	529	-79	31
-36	221	132	74	31
70	200	-410	101	31
59	187	-954	169	31
88	152	-994	240	31
70	165	-647	470	31
55	147	-277	453	31
32	137	41	-47	31
-13	121	50	-285	31
-1	127	122	-318	31
-44	109	118	-62	31
-66	91	-154	0	31
-81	89	-151	-181	31
-62	67	103	1	31
-61	66	336	77	31
-72	54	304	-101	31
-61	72	360	-240	31
-61	194	489	-121	31
-21	357	403	122	31
29	273	244	230	31
61	9	44	66	31
48	-204	-154	-91	31
42	-401	-257	55	31
63	-314	-390	80	31
66	-64	-484	108	31
49	-77	-214	88	31
54	-99	72	-32	31
15	-42	242	29	31
-109	-47	384	61	31
-80	-6	245	62	31
69	80	-26	-4	31
-19	254	-41	-194	31
-36	293	-142	-288	31
29	104	-348	-101	31
-54	-39	-340	56	31
-32	-204	-523	151	31
-33	-237	-1007	77	31
18	219	-857	-86	31
60	862	77	-57	31
40	923	683	-92	31
42	303	1050	16	31
-57	-409	1426	71	31
-43	-1004	1133	104	31
-45	-1085	176	207	31
-113	-470	-333	229	31
-101	-255	-289	147	31
-191	-369	-422	14	31
-74	-242	-284	-74	31
144	-277	234	-198	31
30	-165	461	66	31
22	73	179	257	31
102	154	-134	192	31
98	159	-319	151	31
141	109	-383	-42	31
-2	147	-377	-242	31
49	383	-27	-330	31
202	578	460	-317	31
64	415	147	-78	31
44	243	-174	389	31
23	329	-237	417	31
-43	639	-171	-17	31
-51	785	-86	-32	31
-64	752	-202	131	31
2	771	-129	21	31
-42	-60	-22	-259	31
-31	-1117	304	-533	31
-9	-1486	620	-403	31
-63	-1668	492	-370	31
53	-1423	53	-121	31
57	-919	-354	260	31
-67	-300	-580	307	31
69	124	-384	227	31
156	106	45	5	31
10	176	321	-60	31
17	159	372	-104	31
-46	135	175	-46	31
-60	157	109	104	31
-14	134	90	264	31
-66	124	-311	199	31
-89	87	-665	-21	31
-131	175	-440	-42	31
-8	258	-162	74	31
14	254	-62	32	31
21	287	244	19	31
30	359	574	407	31
-52	500	247	285	31
57	491	-538	-104	31
27	190	-368	84	31
-78	26	254	-42	31
-82	-215	-86	-367	31
29	-500	-177	-194	31
70	-230	61	54	31
-38	97	-226	204	31
160	225	-478	93	31
156	203	-636	-202	31
-7	224	-218	-403	31
53	174	789	-225	31
11	-270	1149	349	31
32	-416	775	496	31
42	-223	430	213	31
-17	-107	628	-11	31
-57	-41	1141	-434	31
-33	13	1266	-729	31
17	61	644	-285	31
-47	277	-480	249	31
-34	327	-1682	335	31
49	29	-1940	409	31
102	-122	-1126	-16	31
85	-238	-400	-210	31
51	-114	709	-204	31
67	135	1732	-281	31
49	254	659	-34	31
0	500	-981	-167	31
-64	411	-1451	431	31
-94	19	-1234	588	31
-141	-318	244	217	31
-126	-362	60	162	31
-25	40	-2043	-197	31
20	468	-1218	-518	31
160	627	1512	-815	31
232	373	3159	-361	31
84	-101	2744	-257	31
3	-452	538	-306	31
-1	-535	-1137	-160	31
-112	-413	-749	109	31
-271	-329	-675	805	31
-212	-285	-861	620	31
-133	-143	117	225	31
-83	-72	244	-73	31
101	52	440	-615	31
157	408	630	-446	31
172	444	412	325	31
157	150	395	674	31
115	-299	546	545	31
109	-754	783	191	31
133	-566	515	-390	31
216	-142	113	-800	31
152	-127	-437	141	31
58	165	-1115	1453	31
38	753	-1703	1560	31
71	980	-1486	598	31
177	1224	-898	-258	31
17	1446	-193	91	31
-249	1044	-165	-621	31
-137	40	353	-1869	31
-54	-1231	1968	-538	31
-331	-1997	1471	1076	31
-430	-1755	-862	440	31
-338	-1190	-1150	-345	31
-377	-122	518	-149	31
-317	646	1105	-881	31
-245	391	-437	-1614	31
-73	478	-3742	-965	31
129	336	-3919	986	31
75	-89	-280	2638	31
117	-325	2922	1407	31
220	-342	3206	29	31
323	31	107	-16	31
288	253	-1623	-136	31
186	301	-748	-320	31
192	114	600	-424	31
71	-77	1119	-383	31
41	-382	423	-900	31
56	-360	811	-1028	31
-2	31	1310	-665	31
-7	97	1217	191	31
34	168	1175	1151	31
99	265	562	1083	31
76	521	48	377	31
-44	242	-392	-116	31
-76	-225	-1190	-245	31
-34	-189	-1435	-853	31
-151	-144	-1709	-154	31
-287	290	-1712	352	31
-260	450	-209	216	31
-201	361	356	440	31
-199	357	306	-578	31
-184	71	51	-257	31
-64	-28	-185	-265	31
107	20	1125	-325	31
183	163	1846	290	31
144	49	1350	275	31
156	-259	85	1	31
42	-599	-503	-793	31
-208	-734	91	-507	31
-173	-15	47	-310	31
-4	383	-156	124	31
86	108	-428	751	31
164	-129	-1085	910	31
194	-118	-491	647	31
196	-194	505	502	31
192	-619	1083	359	31
244	-236	1983	-299	31
245	281	1570	-385	31
17	221	-99	-385	31
-218	135	-1949	527	31
-270	149	-2789	327	31
-387	327	-1272	-736	31
-390	41	-979	-483	31
-152	-122	-826	-334	31
90	-144	959	-104	31
215	-243	1257	461	31
136	100	1200	722	31
62	375	888	-348	31
29	424	555	-1029	31
-12	-24	146	-383	31
70	-525	-540	-88	31
224	-539	-416	281	31
286	-277	-686	563	31
265	6	-561	573	31
142	17	279	506	31
-42	137	-83	43	31
-122	197	-392	-42	31
-165	159	-21	-12	31
-127	131	224	-279	31
-101	72	328	-267	31
-118	129	324	-435	31
-134	104	501	-325	31
-172	100	310	-12	31
-42	49	-417	11	31
97	27	-909	249	31
61	45	-581	-231	31
4	10	-153	-570	31
-59	30	185	-83	31
-110	7	577	104	31
27	19	344	343	31
95	1	-305	201	31
-7	-5	-1305	176	31
-119	42	-637	31	31
-166	114	1378	-220	31
-39	192	1285	32	31
-151	165	351	79	31
-298	2	-783	503	31
-170	-345	-1275	329	31
-30	-351	-360	111	31
99	-19	263	293	31
148	61	604	-49	31
239	34	569	-269	31
272	7	625	-555	31
134	3	714	-441	31
8	24	495	-216	31
-55	20	169	-127	31
-91	20	249	147	31
-149	-7	985	783	31
-56	9	727	1541	31
24	16	-663	698	31
-104	4	-1657	-515	31
-32	9	-1042	-789	31
22	16	-234	-511	31
6	12	-350	-139	31
56	-16	49	-126	31
34	-24	41	-146	31
104	-12	-2	22	31
49	6	178	122	31
12	3	-4	-77	31
-13	-20	146	-182	31
-86	-31	26	-261	31
171	69	-369	44	31
132	281	-521	518	31
-60	307	-433	459	31
54	66	-545	-131	31
24	-197	-82	-184	31
41	-327	1090	327	31
9	-159	1255	562	31
-60	-37	756	395	31
-14	-136	66	-76	31
9	-67	-674	-290	31
22	-22	-44	-687	31
24	-27	538	-346	31
111	-3	-119	150	31
129	11	-530	146	31
95	76	-520	182	31
125	40	-516	-178	31
127	44	-422	-231	31
71	130	-91	-260	31
8	192	271	-434	31
-15	209	202	-320	31
-57	212	-130	66	31
-104	138	137	153	31
-116	-82	364	-101	31
-70	-267	31	-543	31
31	-426	-25	-392	31
43	-327	276	305	31
-49	-79	426	290	31
-57	-17	67	608	31
16	26	-244	965	31
12	61	-224	235	31
44	131	-136	-290	31
60	194	12	-42	31
2	220	177	19	31
54	295	241	-240	31
33	303	199	-197	31
-20	291	387	-9	31
-7	120	354	319	31
-42	-372	173	840	31
-37	-783	106	708	31
-83	-568	404	-269	31
-152	-117	848	-666	31
-91	34	-269	-752	31
36	251	-1751	-576	31
66	560	-1928	-141	31
36	743	-408	-543	31
75	611	324	84	31
21	-21	-677	515	31
99	-787	-69	37	31
231	-874	387	409	31
95	-341	327	489	31
57	3	390	245	31
15	-119	132	270	31
-40	-276	302	247	31
-63	-36	226	-6	31
-63	112	200	-263	31
-43	87	-55	-351	31
-132	103	-659	-41	31
-61	72	-1724	107	31
-37	95	-1025	184	31
-18	69	1907	220	31
6	88	2622	235	31
-64	88	1008	212	31
68	54	-688	-354	31
171	114	-699	-260	31
122	234	-358	-114	31
61	344	-415	-230	31
1	222	267	-16	31
-39	-39	63	-96	31
-41	-232	91	-56	31
-76	-111	-59	-145	31
-106	198	-309	-258	31
-92	288	41	-49	31
27	327	152	195	31
126	160	462	244	31
23	-144	225	-38	31
-41	-318	-197	-302	31
7	-446	101	-435	31
24	-253	131	-522	31
51	-101	-383	98	31
142	-141	-150	1210	31
97	-144	392	720	31
81	-119	484	-29	31
91	-38	265	51	31
-39	-121	166	-335	31
-54	-61	290	-235	31
-16	57	305	-172	31
13	16	-430	43	31
-44	46	-1260	141	31
0	52	-647	-51	31
20	102	365	240	31
-144	145	335	58	31
-112	111	-6	-237	31
-56	47	-285	-242	31
-39	18	-239	-56	31
70	32	-64	-31	31
102	27	0	-34	31
31	50	20	-52	31
4	162	-203	-151	31
21	374	-7	-127	31
106	450	102	51	31
45	307	95	220	31
-42	-42	52	-14	31
-9	-298	49	-118	31
-76	-139	-42	-89	31
-27	165	-343	40	31
-9	57	-178	258	31
-16	-707	-24	167	31
-47	-774	46	134	31
-76	-78	348	361	31
51	162	763	318	31
-4	219	568	219	31
-13	-6	193	98	31
127	-247	211	-310	31
136	-234	-22	-399	31
96	-11	-272	-191	31
108	268	-613	-112	31
69	270	-763	-312	31
47	296	-545	-199	31
54	64	-170	226	31
-2	117	282	74	31
-12	582	486	-43	31
-18	455	628	89	31
-52	153	571	57	31
-89	-111	576	169	31
-122	-373	713	144	31
-82	-292	798	81	31
7	-144	470	140	31
-25	-230	-300	89	31
5	-553	-1055	12	31
215	-634	-1792	131	31
81	-254	-1629	228	31
-157	127	-877	64	31
27	200	-194	-69	31
66	129	124	-154	31
-28	27	116	-257	31
14	-121	408	-235	31
-59	-51	418	-295	31
-79	175	347	-155	31
-174	405	452	-136	31
-126	465	425	-280	31
-36	294	363	-7	31
-25	26	172	147	31
-2	-355	83	186	31
-131	-440	222	32	31
80	-280	169	-12	31
130	-88	-187	69	31
72	45	-459	139	31
123	-3	-172	179	31
88	66	646	-52	31
119	76	826	-189	31
36	91	708	-257	31
-13	121	425	56	31
-151	104	-615	380	31
-148	223	-1302	288	31
-74	306	-1574	94	31
-166	292	-1260	-123	31
-105	139	-606	-25	31
19	-51	202	135	31
-93	-226	553	161	31
-102	-166	141	175	31
52	123	378	-41	31
12	314	1134	-39	31
139	431	1320	4	31
196	306	716	-52	31
67	-123	11	14	31
-69	-546	-482	-43	31
110	-428	-608	-62	31
254	-90	-899	-84	31
-285	-182	-808	-27	31
-254	-230	10	32	31
99	-95	324	14	31
44	-19	562	82	31
62	10	741	63	31
-76	-19	515	-62	31
-103	12	366	-263	31
-76	31	232	-199	31
-61	62	-36	51	31
1	292	-364	54	31
5	631	-595	1	31
131	733	-1054	-34	31
124	403	-473	92	31
53	-41	992	121	31
177	-488	719	13	31
170	-747	170	-76	31
58	-571	-183	-205	31
-33	-553	-702	-52	31
-134	-473	-389	50	31
-112	-62	-388	27	31
-116	71	-301	25	31
-2	208	-181	-27	31
73	395	-194	-12	31
12	399	174	31	31
107	308	582	114	31
-46	-11	654	-74	31
-186	-111	422	-134	31
76	44	515	155	31
111	154	713	262	31
71	483	726	240	31
183	784	305	116	31
-1	427	-279	-56	31
-137	-297	-679	-209	31
78	-569	-831	-196	31
25	-589	-413	-282	31
-191	-365	-249	-178	31
34	23	-469	52	31
7	54	-314	235	31
-121	212	-50	473	31
-64	307	255	224	31
-113	-2	569	156	31
-39	-325	367	117	31
-102	-471	41	11	31
69	-561	69	-76	31
231	-396	-16	-240	31
83	50	-109	-247	31
99	180	-77	-269	31
150	-52	-39	-32	31
67	-266	-2	79	31
-107	-107	126	134	31
-74	22	189	161	31
66	55	-104	35	31
-34	172	-260	64	31
-7	132	-441	87	31
31	154	-493	-15	31
-272	165	162	-82	31
-383	433	652	101	31
-70	968	580	154	31
114	1230	35	-79	31
77	1305	-217	-342	31
116	563	-190	-65	31
79	-1184	-528	153	31
26	-2029	-211	-135	31
-34	-1512	379	-131	31
-47	-593	483	-109	31
216	248	633	-16	31
217	501	499	-127	31
-147	370	328	-288	31
-194	-101	244	56	31
-15	-634	-419	273	31
-89	-492	-490	196	31
-158	-6	-393	-4	31
-99	179	-486	-17	31
-22	134	-217	-19	31
27	155	-119	132	31
9	136	-134	84	31
134	116	-94	-111	31
7	112	-25	112	31
54	76	-184	78	31
248	103	-170	8	31
142	189	-21	11	31
-31	441	129	62	31
-94	617	531	124	31
89	398	881	116	31
-25	47	761	118	31
-96	59	162	97	31
-76	555	-521	201	31
-94	912	-907	271	31
27	491	-969	235	31
-66	-724	-879	-187	31
-48	-1521	-412	-670	31
-62	-1093	233	-519	31
-62	-542	526	-286	31
8	-175	490	-230	31
49	82	249	-4	31
176	212	-126	-9	31
36	385	9	-61	31
19	153	249	-84	31
11	-208	294	-234	31
-7	-489	598	-269	31
199	-509	385	-182	31
167	-142	117	132	31
-14	84	-21	362	31
-304	416	-215	422	31
-150	822	-170	447	31
119	865	-116	410	31
-71	599	170	327	31
-6	28	237	246	31
-27	-624	-356	55	31
-135	-754	-1095	-172	31
33	-286	-953	-74	31
61	12	-189	144	31
22	97	623	119	31
82	141	1294	-63	31
127	225	699	-42	31
107	535	-144	17	31
-34	957	32	-147	31
-106	1322	-69	-235	31
-88	1008	-361	-147	31
0	263	-139	-142	31
54	-529	-96	-101	31
-7	-721	-338	99	31
-67	-158	-209	154	31
-93	-116	174	17	31
165	-885	249	-18	31
69	-1786	158	-16	31
-229	-1464	-56	-43	31
12	-767	-226	-27	31
55	-189	-42	-104	31
47	336	518	-79	31
303	-33	949	-32	31
-46	-157	606	23	31
-161	-155	146	131	31
-19	287	-44	94	31
-270	789	-212	-42	31
-36	503	-244	-129	31
122	229	-180	-70	31
250	-260	-318	145	31
185	-304	-671	102	31
-342	238	-459	-194	31
-430	795	-55	-99	31
-49	1060	-127	89	31
-41	837	-648	101	31
-9	-22	-1110	-57	31
327	-1332	-121	-2	31
199	-1297	1259	26	31
234	-142	1601	-156	31
112	988	1092	-20	31
-202	1445	169	-146	31
-232	560	-533	-157	31
74	-762	-660	9	31
95	-1561	-310	206	31
-227	-1123	-199	552	31
138	-527	-311	551	31
200	-133	-134	302	31
77	396	685	-73	31
36	520	1218	-129	31
-287	769	780	-224	31
-116	586	184	-555	31
136	446	-210	-706	31
7	621	-679	-495	31
137	444	-1162	60	31
96	95	-1262	680	31
-78	-460	-686	762	31
46	-771	-44	-87	31
-44	-672	240	-306	31
149	280	455	57	31
124	895	404	-79	31
-379	155	347	-257	31
-310	-444	95	164	31
57	-563	-76	423	31
-92	120	66	-176	31
-86	1022	185	-166	31
57	829	546	385	31
-126	239	789	394	31
247	-194	232	127	31
151	-286	-716	104	31
-15	-126	-881	251	31
151	-310	-944	176	31
54	-639	-769	-321	31
203	-723	187	-430	31
36	-549	533	-136	31
-116	-149	-12	-270	31
-58	-16	-392	-190	31
-142	-26	-116	-46	31
-160	87	168	51	31
-41	89	427	155	31
-140	74	916	11	31
-66	-17	1114	-163	31
207	10	627	-69	31
-37	74	-119	293	31
51	-95	-558	285	31
195	-297	-540	102	31
-65	-220	-102	5	31
-34	52	227	-204	31
100	153	227	-430	31
205	167	327	-313	31
-10	46	-36	-89	31
-189	136	-540	75	31
24	628	-523	280	31
-15	809	-468	352	31
-117	496	-142	317	31
21	-262	49	-14	31
-24	-785	150	-313	31
-235	-182	615	-296	31
-148	1069	676	-100	31
166	2159	170	9	31
314	2721	-127	52	31
123	2416	-327	505	31
17	1111	-536	404	31
-3	-716	-65	-242	31
-140	-2808	249	-176	31
-51	-4000	-250	-152	31
207	-3280	-580	-344	31
310	-1152	-363	-176	31
192	576	-96	72	31
-29	588	173	361	31
-517	25	618	370	31
-204	-420	862	246	31
329	-1102	735	28	31
36	-671	204	-224	31
-26	537	-205	-203	31
-195	702	-98	-152	31
-39	317	-149	189	31
166	401	-267	314	31
-62	309	-255	156	31
57	188	-338	117	31
69	297	34	-106	31
152	398	-22	-334	31
395	608	-498	-509	31
164	583	-460	-403	31
-174	108	-749	83	31
-94	-219	-526	584	31
-54	334	197	352	31
-93	463	448	-269	31
-13	-267	448	-84	31
21	-585	504	-56	31
25	-214	571	-228	31
-128	393	448	-68	31
-287	159	321	-51	31
-66	-473	202	7	31
121	-789	310	-157	31
-254	-578	413	-10	31
-82	-4	468	291	31
246	-90	242	191	31
76	-529	-265	287	31
168	-486	-646	442	31
-195	466	-738	152	31
-410	1235	-62	-106	31
347	955	374	-52	31
487	471	-81	-229	31
-113	-184	-580	-137	31
-89	-804	-819	18	31
207	-953	-816	-123	31
172	-827	-506	-147	31
-310	-493	-122	-249	31
-370	-184	81	207	31
9	-99	64	897	31
-212	-32	271	525	31
-106	130	549	-174	31
174	488	588	-449	31
86	1381	382	-450	31
224	1817	255	51	31
270	1222	520	310	31
132	473	444	121	31
-32	-653	243	-101	31
-69	-1388	194	-347	31
-102	-813	-338	-205	31
-631	98	-709	19	31
-535	678	-21	-199	31
-40	685	340	-369	31
-62	461	47	37	31
-58	82	-86	102	31
-398	-473	-551	-284	31
-156	-531	-831	-157	31
276	-6	-876	307	31
302	526	-559	227	31
369	313	262	-119	31
344	-528	708	-7	31
354	-1129	552	-116	31
92	-882	-42	-217	31
181	-342	-239	40	31
255	-48	-42	305	31
301	81	337	212	31
69	-126	1079	-103	31
-111	-157	1569	442	31
-195	-32	958	801	31
-564	177	-12	42	31
52	434	-298	-440	31
194	396	-326	-464	31
124	298	-393	-398	31
177	-11	-741	-12	31
-19	-210	-1252	730	31
154	-124	-1400	451	31
-8	262	-809	-568	31
-181	521	-244	-346	31
-178	234	31	-92	31
84	69	462	142	31
-47	-70	705	427	31
-41	-197	726	74	31
290	-217	756	-29	31
-171	-244	723	-124	31
-370	-130	289	-17	31
-240	276	-341	81	31
1	393	-513	-93	31
147	32	-402	179	31
-457	140	-377	299	31
-417	244	-239	167	31
73	165	-279	48	31
-31	27	-527	-177	31
-14	-181	-610	-506	31
-61	35	-249	-501	31
537	147	819	92	31
776	194	1295	223	31
54	197	730	-17	31
150	-48	100	-314	31
204	-239	-673	-213	31
111	-177	-1013	452	31
134	135	-567	436	31
-35	453	128	188	31
-71	744	806	267	31
-74	862	1151	84	31
-77	686	849	-111	31
-50	-58	445	-177	31
135	-1123	13	-127	31
95	-1607	-287	341	31
-270	-846	402	202	31
-70	696	1421	-488	31
28	885	1521	-640	31
-284	-111	561	-112	31
-167	-669	-616	786	31
319	-1246	-2042	759	31
593	-1068	-2341	40	31
-126	63	-1121	-359	31
-841	669	-636	-414	31
-475	692	-773	-197	31
305	101	-460	-402	31
336	-688	-33	-710	31
-88	-920	164	-236	31
37	-605	667	500	31
192	12	864	314	31
270	289	513	-42	31
359	236	447	332	31
216	65	359	380	31
-230	-108	322	245	31
-643	-7	47	315	31
-338	42	-460	-122	31
19	108	-276	-240	31
-141	239	-47	112	31
-181	292	-86	37	31
-136	426	79	-7	31
-239	359	184	-267	31
-59	56	192	-154	31
105	-194	380	-93	31
334	-182	542	-234	31
531	82	156	-156	31
302	158	-298	-153	31
264	218	-601	290	31
126	263	-954	157	31
-144	147	-635	24	31
99	136	-74	58	31
151	86	180	-115	31
-164	87	272	-162	31
73	92	292	-244	31
144	67	222	47	31
116	99	132	122	31
-42	80	231	-41	31
-445	148	272	182	31
-66	140	412	777	31
-2	-32	165	1131	31
-169	-173	-236	560	31
-144	-245	163	-722	31
14	-174	583	-1377	31
386	14	885	-936	31
131	72	922	-214	31
-91	172	388	700	31
39	199	-108	627	31
112	-114	-608	-47	31
-116	-256	-944	-1	31
-196	-229	-1310	-179	31
-56	-291	-1323	-66	31
-420	-104	-518	-107	31
-193	387	-154	-104	31
229	1065	-172	231	31
-7	1420	21	69	31
-60	812	-62	29	31
-282	-276	-187	178	31
-195	-1383	202	222	31
175	-1694	421	-87	31
174	-1002	286	-169	31
77	-234	77	63	31
-200	299	-252	478	31
-263	252	-44	159	31
118	7	620	-699	31
170	-133	964	-195	31
-149	54	525	223	31
-99	440	-55	-74	31
258	348	-464	9	31
294	148	-669	29	31
-224	-222	-312	-182	31
-229	-714	-39	-349	31
162	-743	205	-346	31
102	-463	635	-139	31
-61	-266	538	99	31
-87	147	427	356	31
-162	714	232	197	31
-467	702	-343	27	31
-593	484	-165	292	31
119	361	-61	92	31
832	402	-376	143	31
336	332	-372	250	31
128	-273	-4	-50	31
-17	-717	424	-337	31
-162	-752	259	-467	31
559	-323	-38	83	31
92	64	-389	539	31
-536	36	-818	141	31
-45	157	-458	-193	31
522	288	80	164	31
384	369	131	345	31
-340	299	158	311	31
-141	22	302	-138	31
189	-255	444	-332	31
-4	-446	490	-27	31
153	-221	687	-201	31
177	109	669	-280	31
82	-7	321	-411	31
64	-121	61	-486	31
86	44	19	-264	31
131	4	-82	-17	31
29	-140	-403	335	31
14	-158	-704	606	31
12	-140	-1088	325	31
-137	100	-906	100	31
-226	591	-283	399	31
-219	671	-94	258	31
-187	536	-218	-286	31
-227	898	-259	-370	31
-318	1064	-139	1	31
-112	1032	90	228	31
87	460	270	174	31
86	-922	180	-71	31
-92	-1429	-67	-523	31
-144	-992	-74	-342	31
220	-496	206	379	31
227	-177	344	96	31
-44	-76	523	-298	31
6	100	801	-151	31
-210	-21	659	-161	31
-151	-147	345	1	31
268	101	529	-20	31
-76	157	638	131	31
69	144	338	453	31
64	90	161	375	31
-189	90	-584	274	31
54	361	-1165	151	31
-180	393	-528	128	31
-39	274	-56	-167	31
87	171	-169	-580	31
79	-258	-32	-147	31
-8	-603	-126	159	31
-146	-772	-535	-300	31
-107	-756	-548	-231	31
-117	-476	-339	-209	31
219	-449	-147	-216	31
144	-323	-121	339	31
81	-157	57	380	31
41	183	187	231	31
-73	666	141	367	31
61	533	200	208	31
-205	392	255	-104	31
-281	353	554	-119	31
-105	644	726	-94	31
85	1384	645	-82	31
179	1253	384	-108	31
92	192	-112	-105	31
84	-1037	-403	-82	31
56	-1736	-369	-37	31
139	-1263	-46	125	31
137	-632	252	131	31
176	-238	542	-26	31
136	263	616	-41	31
11	455	252	19	31
52	187	-230	-150	31
-96	-656	-357	-97	31
7	-836	-370	84	31
-36	-168	-520	-224	31
-214	128	-538	-29	31
-171	199	-455	425	31
-114	167	52	304	31
46	338	238	142	31
-38	502	-49	-176	31
-71	432	-398	-275	31
-44	430	-607	-459	31
94	234	-298	-539	31
208	62	-541	-30	31
90	36	-673	488	31
34	97	114	654	31
38	121	473	197	31
84	-6	446	224	31
-23	-152	480	319	31
-74	-317	267	48	31
-94	-249	151	268	31
-161	70	239	49	31
-143	205	298	-295	31
-14	185	303	-247	31
124	344	261	-206	31
59	298	187	-176	31
-61	-82	130	-233	31
-12	-182	216	-119	31
209	-236	258	5	31
124	-263	162	-13	31
-162	96	-212	-66	31
-197	393	-464	117	31
-105	740	-345	290	31
-12	839	-478	194	31
-89	365	-545	26	31
-37	-316	-342	-252	31
153	-1025	-93	-265	31
74	-988	121	-191	31
-157	-502	240	-231	31
-97	-257	346	-66	31
16	-22	109	-99	31
-30	228	-105	-92	31
20	691	-192	50	31
62	1088	-74	287	31
106	980	278	493	31
74	468	442	254	31
203	-362	465	96	31
147	-1269	165	-102	31
-41	-1578	-113	-162	31
177	-936	-26	9	31
176	-25	152	13	31
11	368	158	-177	31
-64	303	61	-554	31
-217	115	4	-712	31
-299	-103	47	-310	31
-300	-243	321	587	31
-207	-369	646	1182	31
104	-283	501	651	31
322	131	44	-1	31
250	529	-425	45	31
112	404	-827	192	31
36	69	-630	330	31
98	-36	-344	94	31
99	-111	-289	-169	31
81	222	-283	-307	31
41	798	-405	-290	31
-49	1437	-380	42	31
-12	1377	-320	-110	31
-47	-103	-95	-190	31
-87	-1453	94	-126	31
-130	-1538	109	-191	31
-171	-849	266	-86	31
-59	-237	550	-1	31
54	257	579	-42	31
77	542	389	-47	31
32	569	253	47	31
14	133	-343	4	31
-1	-538	-764	47	31
-65	-565	-520	307	31
-49	-182	-60	196	31
49	513	17	-135	31
176	786	31	-164	31
28	491	576	-275	31
-75	49	783	-219	31
31	-613	511	-36	31
-228	-603	222	-102	31
-187	-29	72	299	31
15	-3	-248	612	31
-142	-348	-324	33	31
-21	-46	-98	-122	31
56	465	-96	49	31
-91	488	-70	-82	31
13	230	-46	17	31
111	-35	88	32	31
186	-285	250	71	31
251	-460	531	-111	31
11	-273	833	-427	31
-30	-135	738	-275	31
-69	-1	58	152	31
-129	173	-975	459	31
14	155	-1346	367	31
-69	16	-929	132	31
44	-84	-601	-10	31
109	67	-453	-116	31
38	130	-115	-212	31
2	171	227	-59	31
-177	200	215	35	31
-34	142	56	47	31
104	96	51	139	31
-46	71	166	11	31
-17	245	330	-47	31
26	437	267	-300	31
39	355	111	-533	31
179	33	96	-161	31
177	-161	131	398	31
34	-255	159	442	31
-117	-298	311	27	31
-131	-245	495	29	31
-9	-265	410	51	31
56	-207	145	2	31
-31	-5	-338	106	31
-47	251	-685	54	31
22	468	-423	28	31
57	525	-54	94	31
167	330	-30	52	31
-11	-146	-46	-369	31
-93	-451	-34	-387	31
54	-530	-154	-148	31
35	-515	61	-204	31
117	-172	292	39	31
145	-51	210	154	31
126	-146	153	-89	31
102	-6	87	52	31
-8	310	107	385	31
-121	749	8	327	31
-92	723	-15	2	31
-96	217	-5	-97	31
-80	-312	-187	2	31
-8	-642	-130	-176	31
-205	-573	87	-317	31
-34	-395	224	-7	31
89	-312	213	102	31
-41	-128	137	17	31
75	210	6	104	31
104	145	-287	109	31
102	-122	-321	111	31
-14	-12	-58	8	31
16	-148	-5	-29	31
87	-221	39	18	31
-75	28	167	21	31
12	68	158	26	31
38	301	17	59	31
-154	648	-371	66	31
-254	708	-543	-10	31
-139	357	-307	-19	31
-197	-144	-31	-34	31
-402	-457	297	-101	31
-76	-621	402	-34	31
189	-315	232	79	31
186	57	237	70	31
285	106	282	122	31
317	303	251	34	31
25	452	159	-74	31
66	293	56	29	31
237	85	26	150	31
37	-267	136	201	31
111	-511	180	126	31
57	-239	-132	158	31
-21	-42	-394	-41	31
17	-35	-769	-265	31
-112	37	-740	-152	31
-212	43	-32	-107	31
-57	133	260	-138	31
61	109	214	-181	31
-104	41	121	-150	31
7	47	-13	-15	31
137	16	-13	51	31
125	39	-5	48	31
1	-48	46	39	31
-14	-170	134	16	31
26	57	185	42	31
23	508	56	-37	31
63	624	-186	-136	31
-36	544	-168	-83	31
-1	135	-117	-14	31
-92	-330	-171	-77	31
-76	-236	-68	-132	31
-72	-199	154	61	31
-143	-14	333	372	31
-112	426	282	600	31
-131	350	144	324	31
25	-59	7	-174	31
5	-144	-215	-270	31
-15	-224	-495	-136	31
-16	-227	-367	53	31
6	-321	607	-77	31
137	-681	891	-205	31
81	-508	272	-88	31
2	-520	-12	134	31
21	-554	-447	237	31
107	-180	-731	92	31
24	96	-245	-6	31
-72	295	216	-112	31
-41	205	172	-53	31
-9	159	134	-45	31
-46	237	4	-31	31
-107	431	-49	22	31
67	756	-46	-119	31
46	1136	-100	-148	31
-95	1040	-94	-30	31
38	-54	-370	101	31
101	-1178	-220	226	31
166	-1490	237	-49	31
145	-869	546	-581	31
105	-313	631	-87	31
-1	-18	314	880	31
-109	147	-37	753	31
-61	17	-470	72	31
-144	96	-654	-207	31
56	86	-204	-279	31
122	200	140	-257	31
-12	227	89	-219	31
-155	52	-41	-347	31
-151	152	-164	-203	31
25	350	-230	252	31
-124	450	-85	413	31
-70	96	250	31	31
-1	-155	363	-25	31
163	-45	330	72	31
191	-74	390	10	31
-21	2	272	92	31
71	55	97	100	31
29	-54	27	223	31
115	-131	36	85	31
22	-155	62	-56	31
-187	-51	147	-115	31
-95	-12	224	-243	31
-107	-84	53	-134	31
-36	-47	47	-169	31
-24	74	9	-96	31
-54	147	-545	39	31
6	157	-997	44	31
51	142	-685	81	31
80	137	-367	-1	31
-9	249	-237	-48	31
114	566	134	-41	31
156	573	206	-100	31
-109	36	350	-52	31
-141	-246	541	77	31
-6	-250	432	68	31
82	-138	156	-39	31
25	116	7	-94	31
6	-231	61	-159	31
51	-642	-165	-65	31
-74	-396	-279	456	31
-126	-44	-84	843	31
-44	169	-71	593	31
-49	255	-221	194	31
-21	434	-94	-203	31
49	492	209	-450	31
-45	295	192	-391	31
66	-6	70	-390	31
230	-364	-9	-404	31
81	-373	-134	-413	31
60	-363	-54	-174	31
78	-471	46	386	31
42	-535	-21	545	31
43	-436	-54	192	31
-69	-48	93	42	31
-91	124	281	19	31
19	101	388	39	31
44	102	452	62	31
-27	35	409	-188	31
-47	29	37	-159	31
61	146	-74	-137	31
-2	201	66	-89	31
-132	74	-220	118	31
-90	117	-317	79	31
-156	451	-392	152	31
-62	429	-473	79	31
110	32	-170	29	31
120	-192	-189	83	31
171	-296	-297	60	31
-39	-306	-115	64	31
-460	-82	-83	142	31
-443	-8	-115	197	31
5	-148	63	79	31
-89	-22	149	-59	31
-49	168	182	-322	31
337	297	162	-240	31
142	471	71	41	31
220	505	151	-61	31
242	261	122	-127	31
78	-239	81	-158	31
54	-592	208	-134	31
24	-521	215	92	31
101	-172	146	5	31
89	-62	156	56	31
65	-35	-73	201	31
58	96	-321	-9	31
77	106	-122	-144	31
9	335	156	-154	31
42	591	109	164	31
11	662	31	346	31
-132	539	90	65	31
23	-204	3	-4	31
80	-958	43	5	31
48	-683	54	-31	31
26	-187	-83	182	31
-177	-188	-106	104	31
-229	-101	51	-180	31
16	138	399	-64	31
104	235	441	11	31
-4	185	160	-129	31
-111	-26	-444	-100	31
35	-198	-725	-135	31
86	-192	-490	-151	31
-164	-150	-499	-51	31
13	108	-331	180	31
-69	244	20	320	31
-241	99	157	7	31
-43	-11	343	-41	31
-24	-139	365	83	31
-34	-28	86	134	31
30	258	7	174	31
87	310	235	-1	31
-101	182	427	-49	31
19	34	200	-136	31
134	-187	44	-172	31
-72	-111	-99	-14	31
54	317	-330	57	31
12	342	-184	67	31
-113	50	-189	74	31
35	-307	-181	25	31
-27	-684	-105	-61	31
-171	-414	-150	-127	31
-45	135	-59	-159	31
-34	230	24	-5	31
-112	190	169	159	31
-92	156	257	81	31
-7	212	192	4	31
136	237	77	16	31
41	15	-32	-21	31
79	-122	104	-29	31
157	-223	118	-49	31
93	-412	-167	-84	31
177	-358	-257	-93	31
167	56	-367	-4	31
156	589	-139	189	31
-5	979	508	251	31
-104	713	545	57	31
16	97	310	-123	31
-42	-461	206	-127	31
4	-1056	17	-99	31
44	-953	-56	-114	31
-20	-400	35	-80	31
21	-250	-21	359	31
-6	-191	-193	248	31
-34	79	64	-99	31
-46	521	474	187	31
-6	956	399	81	31
45	952	-57	104	31
23	416	-487	175	31
46	-298	-692	-74	31
36	-767	-676	-267	31
74	-841	-526	-374	31
124	-624	-106	-132	31
62	-150	435	-16	31
7	-12	423	-17	31
-3	-94	214	7	31
-46	70	106	-6	31
-215	-11	12	65	31
-343	-54	-23	33	31
-169	79	-316	-93	31
15	117	-431	-304	31
34	185	-199	-270	31
-21	258	62	47	31
-42	702	212	199	31
151	1424	222	252	31
118	1391	275	219	31
36	539	204	100	31
-27	-649	109	84	31
-162	-1289	59	42	31
-5	-963	-5	-7	31
13	-790	-29	20	31
-30	-536	-22	17	31
55	-244	-19	7	31
53	-167	81	6	31
-32	49	357	9	31
-19	54	346	-32	31
59	209	101	-93	31
44	357	-36	20	31
-62	337	-119	96	31
-2	238	116	21	31
256	172	176	26	31
141	337	-261	-4	31
40	690	-512	-72	31
18	917	-747	-36	31
8	90	-679	16	31
92	-831	-142	4	31
-24	-758	162	-9	31
11	-622	242	-64	31
2	-403	215	-150	31
7	68	146	-107	31
15	-24	47	79	31
-160	-113	-19	179	31
-194	260	-26	154	31
17	361	20	103	31
103	201	126	-44	31
-16	27	227	-72	31
36	-31	315	-71	31
-33	-355	240	-109	31
-36	-697	80	17	31
81	-167	-157	19	31
101	378	-404	-132	31
77	301	-201	-68	31
5	164	204	172	31
-18	57	348	204	31
-86	92	242	235	31
-34	351	61	394	31
-28	222	-148	231	31
-127	-169	-201	23	31
-170	-340	-293	-169	31
-69	-292	-371	-297	31
67	53	-86	-193	31
53	223	135	-211	31
-20	127	314	-247	31
-10	72	415	-390	31
62	-37	329	-213	31
91	-62	237	265	31
176	-1	77	337	31
122	51	-114	273	31
41	11	-164	122	31
7	-22	-165	17	31
-31	69	-163	19	31
-69	268	-154	-2	31
-147	506	-245	49	31
-87	373	-189	49	31
-45	-3	-17	37	31
-28	-387	40	9	31
-69	-675	-4	-39	31
-107	-200	-24	-71	31
10	609	-3	-87	31
61	604	-16	-154	31
64	117	21	-95	31
106	-337	86	149	31
74	-613	179	165	31
34	-316	169	132	31
21	141	32	87	31
4	84	-104	56	31
-29	-304	-152	26	31
-87	-576	-86	-130	31
-72	-460	-51	-36	31
-60	-7	17	16	31
-9	257	86	-120	31
2	260	28	-119	31
-41	138	55	-27	31
-37	-114	159	15	31
65	-134	81	-5	31
165	-38	54	37	31
71	-21	87	45	31
97	57	33	46	31
94	133	252	59	31
56	144	535	38	31
40	160	347	-74	31
-58	192	-10	-211	31
-56	153	-345	-183	31
-90	100	-720	-39	31
-109	127	-663	197	31
-101	155	-298	179	31
-159	71	62	-34	31
-182	3	377	-41	31
-72	-207	203	-3	31
-15	-411	-17	-6	31
-61	-205	-144	5	31
-12	-16	-360	27	31
22	11	-214	54	31
7	57	-5	47	31
28	94	174	19	31
52	162	128	22	31
40	398	-39	3	31
49	755	-47	-22	31
31	760	-106	0	31
-1	514	53	49	31
-6	409	365	56	31
-39	230	417	-88	31
-36	163	269	-189	31
-75	-320	63	-216	31
-90	-1497	-275	-34	31
21	-1721	-492	412	31
77	-1066	-177	359	31
56	-306	265	-2	31
101	26	383	-39	31
104	-208	265	-108	31
82	-81	91	-142	31
81	-81	179	-19	31
32	234	64	31	31
65	528	-280	18	31
101	247	-244	-17	31
84	270	-234	10	31
44	117	-205	17	31
-24	99	-72	-41	31
-45	189	-65	-70	31
-17	220	-113	-94	31
-18	413	-153	-97	31
-50	331	-126	-18	31
-35	165	-54	163	31
-9	-36	104	267	31
24	-210	241	34	31
84	-138	319	-149	31
135	0	297	-82	31
132	-61	235	-49	31
99	-92	219	0	31
61	1	261	4	31
42	75	315	16	31
46	112	182	36	31
46	86	-53	57	31
25	117	-322	56	31
-178	112	-406	-11	31
-228	109	-220	-14	31
-25	-18	-102	-9	31
-40	-307	-112	7	31
-94	-234	-107	-12	31
-52	135	116	3	31
36	316	448	92	31
28	229	732	90	31
-168	-1	595	-12	31
-127	-170	122	-66	31
30	0	-424	-117	31
49	155	-1210	-102	31
10	-22	-984	84	31
34	-346	-169	171	31
48	-614	-165	123	31
-36	-408	-41	39	31
-26	-99	245	-87	31
-41	23	217	-182	31
-24	159	141	-199	31
45	231	101	-74	31
-36	224	99	121	31
-14	116	-44	79	31
-1	291	-40	20	31
-27	715	-6	178	31
79	779	-6	132	31
107	351	260	156	31
160	-312	383	251	31
77	-946	20	-26	31
-56	-900	-219	-156	31
-3	-127	31	-133	31
129	128	32	-197	31
167	92	-54	-228	31
52	207	-262	-172	31
-37	-130	-335	-58	31
-48	-194	209	-60	31
-38	-203	325	46	31
-181	-526	-89	116	31
-106	-390	-451	-29	31
-76	-205	-214	-23	31
-96	0	338	31	31
45	169	368	25	31
-4	102	233	91	31
44	164	315	175	31
35	144	83	240	31
76	174	-448	259	31
72	244	-188	176	31
-130	224	429	-45	31
-52	264	475	-167	31
23	116	200	-51	31
-49	-114	-2	114	31
-1	-111	-93	92	31
-50	4	-49	-41	31
-130	38	53	-76	31
4	29	-59	-96	31
24	3	-4	-11	31
-73	-2	-30	143	31
-62	-15	-251	166	31
-43	-31	-483	87	31
16	25	-358	-135	31
70	22	252	-356	31
69	-12	232	-160	31
55	52	17	93	31
55	146	280	-171	31
61	190	354	-107	31
7	169	104	125	31
-45	101	-28	37	31
-62	46	-107	-39	31
-45	31	-244	-86	31
-28	4	-72	63	31
-26	0	174	31	31
-24	14	-11	110	31
-9	-4	-301	369	31
20	-21	-283	180	31
32	2	-272	-106	31
114	43	-161	-91	31
156	61	23	-172	31
99	73	55	-181	31
98	61	152	-85	31
70	-50	229	-208	31
27	-302	220	-92	31
-12	-310	-14	-9	31
-73	-51	-124	-98	31
-106	24	-24	107	31
-111	28	28	359	31
-85	31	-232	452	31
-72	-31	-649	405	31
-48	-56	-402	254	31
-71	-51	50	195	31
-127	-59	53	-70	31
-136	-44	144	-527	31
36	21	793	-598	31
244	44	874	-143	31
144	19	440	48	31
116	3	-97	22	31
153	24	-779	209	31
64	23	-1107	176	31
113	7	-460	180	31
91	35	382	60	31
31	13	287	-179	31
-1	-1	458	-399	31
-54	72	11	-622	31
-56	163	-473	-495	31
-80	79	-137	-125	31
-100	-152	361	247	31
-72	-348	966	350	31
29	-467	669	475	31
67	-228	40	668	31
62	29	-240	607	31
79	190	-119	99	31
96	575	241	-336	31
142	559	205	77	31
79	305	-239	463	31
-8	87	-385	232	31
-38	-263	143	-234	31
-64	-306	130	-219	31
-89	-186	-423	-262	31
-153	-126	21	-654	31
-205	-22	412	-440	31
-202	32	-155	-96	31
-144	172	-578	107	31
-64	408	-574	-78	31
35	367	62	-232	31
112	133	719	-210	31
146	-174	477	-197	31
203	-578	423	-24	31
227	-631	672	87	31
123	-423	789	221	31
37	-221	1014	-73	31
10	37	483	-92	31
-17	209	-1212	339	31
9	195	-2234	734	31
9	167	-1393	723	31
27	99	197	261	31
56	-129	385	205	31
-12	-56	-365	-62	31
-89	179	-628	-703	31
-121	137	-1262	-1082	31
-137	39	-942	-806	31
-141	-1	-212	-64	31
-79	37	-330	176	31
24	50	723	-6	31
121	5	2064	36	31
183	-60	1456	-422	31
171	-120	222	-1171	31
121	-149	-1314	-859	31
45	-112	-2729	440	31
-21	49	-1564	2349	31
-57	187	-599	3216	31
-48	287	736	1561	31
12	215	2812	-272	31
-8	113	2620	-821	31
-112	40	1767	-602	31
-250	-83	430	-564	31
-365	9	-54	-1016	31
-360	89	973	-835	31
-234	162	1415	-222	31
-59	127	506	-316	31
111	-20	-663	-365	31
264	-53	-1550	851	31
322	-126	-1499	1053	31
236	-122	-951	59	31
116	-159	-1897	239	31
45	-154	-1812	2200	31
-2	-32	-14	1835	31
-93	64	1195	-1485	31
-183	242	2215	-1898	31
-84	144	1963	-1136	31
36	-78	-526	-713	31
82	4	-2263	104	31
112	47	-1208	627	31
20	33	4	653	31
-31	-4	1308	-856	31
-19	-84	1907	-1512	31
-86	-61	-86	-606	31
-108	-95	-49	923	31
-58	-121	-335	1874	31
62	-129	-1643	1335	31
186	-7	7	475	31
207	320	904	-365	31
137	526	962	-485	31
-15	358	353	-1669	31
-109	-2	-1008	-2400	31
-208	-301	-1523	-720	31
-180	-543	-1492	199	31
87	-365	-570	1391	31
113	-168	1200	1952	31
46	-165	3254	495	31
15	-86	3273	-765	31
-85	-144	605	-773	31
-140	-67	-2020	-791	31
-102	-22	-3821	-896	31
84	55	-3194	-218	31
186	222	92	1549	31
188	204	1100	2382	31
82	194	285	221	31
-6	155	-1226	-328	31
-154	202	-1007	-459	31
-383	259	974	-999	31
-412	276	1179	-7	31
-354	216	1446	43	31
-87	16	1373	780	31
228	-209	472	1485	31
382	-414	-337	358	31
370	-260	285	-1191	31
217	-41	1033	-842	31
111	27	1452	-424	31
45	97	812	-1233	31
24	14	-944	-716	31
-22	-85	-1135	-31	31
-80	-112	-1577	1069	31
-49	-61	-2389	2238	31
-42	-36	-1163	977	31
-101	-1	993	-1068	31
-24	96	583	-1199	31
94	100	-185	-862	31
53	56	-30	-536	31
19	-12	-27	243	31
47	-51	-213	134	31
21	-20	-17	110	31
-99	36	1000	647	31
-83	27	1690	-19	31
8	11	2138	-730	31
-65	23	1592	-48	31
-190	-16	1320	754	31
-271	26	-84	1376	31
-270	29	-1683	1158	31
-272	-11	-1742	304	31
-127	20	-1368	-788	31
180	-50	-310	-1093	31
467	-82	-509	-490	31
601	-62	-616	-318	31
509	-9	-766	42	31
324	129	-1338	-367	31
35	209	-738	-572	31
-161	211	633	-285	31
-214	54	691	-141	31
-342	-89	-186	152	31
-387	-103	570	192	31
-146	-144	1231	256	31
162	-129	1282	192	31
304	-54	680	997	31
355	79	76	1075	31
326	129	475	-237	31
215	13	269	-1080	31
106	-42	195	-1558	31
58	-40	496	-929	31
-34	-47	-136	-321	31
-198	-31	-682	15	31
-200	27	-1052	1184	31
-168	117	-838	1203	31
-270	182	-416	662	31
-378	99	-781	-66	31
-331	-81	-756	-136	31
-43	-79	-184	924	31
90	1	392	1076	31
40	-19	-99	-107	31
94	-37	-466	-758	31
117	-51	-197	-596	31
181	-71	-116	-288	31
222	-89	1068	535	31
73	3	1415	221	31
-57	162	908	193	31
-36	61	569	525	31
-20	14	-908	505	31
-21	79	-689	442	31
51	12	-20	-392	31
-25	6	406	-1044	31
-160	-19	1269	-1291	31
-149	6	338	-950	31
-121	28	-698	-204	31
-92	-9	-708	-14	31
-104	-17	-348	-292	31
-112	-44	-162	57	31
-16	-17	22	706	31
49	10	-37	392	31
24	23	-315	41	31
31	9	-596	-1	31
82	-20	-869	-579	31
61	-70	-1180	-757	31
22	-127	-175	-603	31
21	-130	1440	-257	31
3	-91	1725	574	31
-31	-10	1948	1144	31
-47	21	1056	1136	31
-47	44	-852	613	31
-92	102	-2097	698	31
-101	136	-924	565	31
-5	179	390	-179	31
44	212	125	-367	31
54	134	932	-123	31
117	7	667	27	31
189	-49	-79	-26	31
195	-56	-426	-213	31
80	-24	-382	-445	31
59	-14	98	-387	31
76	-27	-7	-549	31
46	-22	657	-402	31
140	-34	728	51	31
57	-29	206	191	31
-39	-11	-460	102	31
-23	-34	-516	580	31
-123	-54	466	583	31
-145	-66	556	-700	31
-164	-39	-659	-866	31
-115	9	-1786	-804	31
-23	-4	-1207	-210	31
65	32	66	965	31
188	46	518	636	31
194	28	485	262	31
141	42	136	373	31
19	-30	-771	-96	31
-64	-49	-791	-763	31
-117	-26	573	-516	31
-139	-31	1243	225	31
-34	17	1067	392	31
1	34	435	618	31
-4	24	-61	513	31
142	1	-22	-214	31
220	2	119	-157	31
141	14	463	-49	31
116	5	-305	100	31
101	11	-972	208	31
66	6	-651	-52	31
66	8	-159	-42	31
24	-13	205	-147	31
-71	-7	202	-339	31
-97	20	88	-249	31
-15	14	112	334	31
-8	-6	270	253	31
-29	-46	165	-184	31
-31	-48	37	-39	31
-78	-17	-241	146	31
-97	19	-814	-59	31
-96	76	-948	-283	31
-101	80	-336	169	31
-127	32	166	1	31
-142	14	515	-171	31
-161	-9	623	-119	31
-154	-21	327	-644	31
-54	-19	508	-476	31
21	-28	184	-94	31
51	2	-354	761	31
50	4	-410	989	31
65	-26	97	198	31
121	6	172	152	31
151	48	-877	-95	31
106	44	-987	212	31
36	39	-605	161	31
-47	29	56	-89	31
-87	0	827	192	31
-29	-6	1053	-169	31
-51	96	803	-250	31
-49	205	120	-776	31
-62	-13	-197	-464	31
-84	-283	-43	189	31
-16	-159	159	231	31
13	17	-87	350	31
34	20	-263	110	31
27	-9	144	-22	31
113	-21	294	-213	31
105	27	372	-210	31
-1	193	600	-212	31
84	405	486	-377	31
71	437	64	-394	31
-11	215	-365	-109	31
-16	-336	-821	608	31
-25	-776	-845	883	31
-33	-458	-497	98	31
-35	-47	-89	39	31
-37	-25	227	274	31
-40	23	294	-166	31
-9	17	398	-187	31
13	2	343	-141	31
34	16	297	136	31
58	-17	183	-2	31
52	31	-125	-75	31
44	67	-332	129	31
123	52	-224	-6	31
96	36	62	59	31
-14	31	66	-4	31
32	24	-14	12	31
-16	11	-156	-16	31
-109	12	-89	-33	31
-102	34	66	-86	31
-79	119	-18	-206	31
-42	270	1	-192	31
-67	397	-99	-90	31
-107	362	-144	191	31
-63	136	-167	147	31
13	-121	-305	151	31
35	-204	-269	136	31
24	-54	-213	-30	31
49	52	-245	78	31
102	-32	-311	17	31
80	-231	-425	-53	31
28	-562	-147	-43	31
17	-581	273	26	31
11	-145	281	228	31
6	53	352	169	31
-55	-1	360	-24	31
-104	57	431	-49	31
-57	37	478	-47	31
-58	18	477	-101	31
-49	36	553	-129	31
36	50	588	-161	31
7	81	397	-105	31
7	55	-149	1	31
162	88	-93	16	31
210	107	-126	169	31
63	103	-293	289	31
-56	93	-299	77	31
-36	90	-411	-82	31
102	165	-459	-150	31
59	86	-496	-95	31
0	-129	191	42	31
70	-132	455	38	31
-101	14	157	104	31
-56	74	-26	169	31
36	54	-281	177	31
-72	13	-184	-79	31
-9	33	43	-250	31
14	44	122	-104	31
35	89	175	-127	31
65	255	360	25	31
45	302	400	16	31
112	185	516	-227	31
230	49	570	-226	31
189	-203	345	0	31
-73	-456	-227	223	31
-130	-360	-948	75	31
-27	9	-958	12	31
-52	297	-405	109	31
-9	522	179	61	31
-43	564	83	15	31
-126	-165	-150	-42	31
-102	-1017	-205	8	31
-46	-809	-353	-28	31
-28	22	-419	-189	31
-47	485	-354	-214	31
89	502	-72	-89	31
63	292	-378	-46	31
24	-107	-416	-217	31
139	-525	187	34	31
72	-742	529	487	31
-29	-495	604	306	31
-46	-52	440	105	31
-16	165	389	16	31
47	348	290	23	31
-2	363	-112	284	31
-107	205	-625	243	31
24	36	-328	56	31
-35	-218	458	-99	31
-43	-226	447	-91	31
173	-21	71	-21	31
93	67	-231	-14	31
-162	69	-339	-114	31
-168	51	-209	-324	31
117	30	-31	-294	31
-31	62	101	10	31
155	114	-129	83	31
312	119	-184	-57	31
-13	124	188	3	31
191	115	319	-29	31
52	33	235	-42	31
-142	-13	180	-49	31
-26	241	189	-103	31
-19	437	335	-77	31
-165	412	342	-52	31
-261	256	324	49	31
12	-223	313	131	31
-101	-410	95	199	31
-130	-224	-129	154	31
-14	-99	-311	104	31
-41	-133	-375	98	31
130	-249	-390	106	31
124	29	-238	118	31
-51	427	-76	34	31
-138	536	63	-49	31
47	496	309	-164	31
77	114	161	-212	31
-34	-191	-40	-69	31
-129	-644	-111	212	31
-36	-1112	-146	327	31
124	-273	32	162	31
13	556	83	36	31
83	491	-16	34	31
26	130	32	7	31
-36	-466	171	2	31
70	-597	197	-14	31
194	-187	19	-139	31
124	167	-227	-184	31
-242	124	-235	-117	31
-101	-91	8	-67	31
34	-362	263	-75	31
15	-511	432	-29	31
104	41	347	16	31
139	739	41	15	31
12	707	-20	29	31
-311	396	-34	86	31
-96	51	-134	169	31
24	-410	-225	78	31
2	-337	-327	-88	31
29	265	-225	-229	31
-170	860	-221	-172	31
-42	721	-304	150	31
-42	58	-175	169	31
-167	-47	52	-46	31
14	-505	223	-36	31
132	-1208	99	104	31
109	-910	-141	372	31
-44	-446	-102	344	31
-106	-237	-231	-52	31
44	-175	-440	-175	31
7	-210	-367	-187	31
41	-19	-80	-102	31
91	95	356	-96	31
-97	137	412	-160	31
-114	285	475	-142	31
-89	312	589	-224	31
-76	323	538	-206	31
-16	380	660	-42	31
-90	243	488	250	31
-42	-28	22	121	31
147	142	-423	36	31
102	664	-1064	307	31
-94	720	-1380	197	31
57	165	-876	76	31
337	-345	-89	240	31
92	-384	511	221	31
22	-131	561	-80	31
267	31	334	-126	31
-16	-79	-17	-177	31
-158	-99	-231	-180	31
-279	-37	174	-52	31
-405	207	330	-180	31
-62	906	138	-184	31
164	1282	-72	-174	31
114	919	416	52	31
-91	111	936	266	31
2	-947	317	162	31
73	-1372	-370	154	31
-5	-1235	-1050	5	31
59	-1109	-816	-74	31
52	-149	-121	-26	31
186	538	-71	-96	31
88	294	163	-60	31
-247	119	541	18	31
-212	-287	1132	187	31
1	-456	862	216	31
165	-376	-49	-125	31
-27	-132	-397	-122	31
-248	137	-793	134	31
-4	200	-1047	126	31
-37	431	-945	-109	31
-51	317	-142	-345	31
114	112	671	-196	31
-11	-71	493	-38	31
264	-245	122	-34	31
326	-18	24	-16	31
-214	230	69	-26	31
-333	312	-177	55	31
-11	303	176	102	31
184	249	997	86	31
91	560	1179	47	31
-26	463	689	38	31
-174	-669	-343	-19	31
-66	-959	-604	-3	31
-69	-340	-110	152	31
-124	189	-101	75	31
132	420	-281	-136	31
19	72	-179	-67	31
-9	-146	-545	272	31
106	-268	-808	392	31
208	76	-437	201	31
273	727	-45	79	31
-45	604	231	50	31
-116	556	-160	66	31
-9	152	-621	-13	31
-26	-869	-506	-254	31
99	-804	4	-330	31
128	-278	463	-247	31
18	285	513	-100	31
-196	1625	388	116	31
-495	2233	316	160	31
-502	1545	420	87	31
-76	79	447	42	31
356	-1871	669	34	31
335	-2264	949	-81	31
65	-1894	589	-459	31
55	-1773	-29	-369	31
213	-937	-319	45	31
465	-480	-590	424	31
558	-128	-785	559	31
-133	326	-823	270	31
-560	477	-673	174	31
-205	680	161	-143	31
-187	662	659	-206	31
-18	345	430	-54	31
211	-36	74	-37	31
-41	-74	-264	61	31
-124	-126	-447	-87	31
-535	-84	-317	-262	31
-625	154	317	-378	31
148	194	428	-158	31
340	277	-40	-24	31
358	241	-449	-86	31
429	64	-558	90	31
80	-39	-117	194	31
119	377	-64	339	31
141	678	-6	514	31
26	215	263	224	31
-22	-256	68	39	31
-54	-529	-114	-84	31
181	-175	-147	-457	31
162	274	-187	-447	31
36	305	-224	-187	31
-188	580	-110	30	31
-202	1136	45	7	31
0	1896	216	217	31
-106	2022	397	266	31
-32	1143	570	34	31
64	-349	882	116	31
-73	-2052	864	36	31
-7	-2506	299	11	31
-106	-1994	-137	123	31
-514	-1552	-280	250	31
-72	-842	-217	-47	31
305	-327	-80	-434	31
238	-139	-283	-210	31
297	-14	-234	-174	31
-78	17	-144	-206	31
-74	30	-576	-112	31
-121	-9	-349	-7	31
-348	73	355	186	31
-342	240	103	284	31
-567	368	-265	224	31
-853	583	78	49	31
-391	858	167	198	31
117	829	97	189	31
206	370	342	-172	31
716	-131	510	-381	31
505	-297	91	-72	31
274	-109	-684	77	31
379	175	-1189	-311	31
508	150	-1474	-220	31
225	-122	-1194	1	31
29	54	-360	56	31
600	593	813	-23	31
148	630	1532	-67	31
-134	-62	1275	368	31
-97	-420	867	613	31
-258	-470	640	284	31
-282	-657	514	-148	31
-220	-362	205	-16	31
166	-187	-14	275	31
141	-160	-3	149	31
192	-135	-226	-95	31
220	27	-728	-290	31
321	692	-909	-34	31
405	858	-611	347	31
46	992	-387	334	31
-116	992	-339	-34	31
-352	177	-210	-306	31
6	-264	-95	-329	31
248	-342	62	-315	31
-262	-273	388	-194	31
-118	52	346	-176	31
-40	-49	339	-162	31
-355	-581	486	62	31
-428	-655	302	635	31
-393	-203	149	376	31
164	78	333	-112	31
608	29	328	127	31
-2	-224	-95	58	31
-262	-263	-268	-179	31
-174	-240	-186	-527	31
-152	-229	-174	-690	31
386	-7	-90	-472	31
195	170	-64	182	31
-11	414	-341	563	31
151	650	-339	336	31
113	621	-9	442	31
145	227	131	166	31
-230	-97	138	-325	31
-189	-255	270	136	31
-270	-249	355	320	31
-348	12	519	-197	31
225	-16	811	-157	31
348	-173	417	-116	31
269	-395	-41	-348	31
-97	-557	-371	-399	31
-155	-264	-571	-482	31
-54	-94	34	-260	31
-204	-46	257	285	31
134	59	41	963	31
338	-208	-107	778	31
384	-268	-708	-201	31
-133	225	-821	-475	31
-676	672	-388	-545	31
-274	634	-162	-117	31
-121	352	15	660	31
-217	116	142	658	31
2	-365	123	411	31
-76	-537	-146	245	31
279	-219	-330	118	31
645	-59	-235	39	31
218	21	12	4	31
-76	29	-84	10	31
-227	-30	-78	-75	31
69	-28	427	-492	31
16	-12	719	-635	31
-365	19	709	-500	31
-277	22	312	-498	31
-99	-41	-68	-7	31
205	-69	-244	317	31
332	-1	-367	116	31
326	45	-104	-30	31
199	5	-17	-8	31
-195	26	-68	128	31
-439	170	102	66	31
-181	225	37	160	31
-156	179	96	295	31
-99	148	86	121	31
195	208	69	114	31
291	214	-40	-44	31
307	104	-310	-281	31
47	177	-294	-279	31
349	336	-265	-380	31
332	330	-16	-357	31
-451	151	122	111	31
-314	-120	234	583	31
-149	-458	478	402	31
-462	-599	466	-66	31
-418	-290	259	38	31
-85	65	258	208	31
287	229	268	117	31
399	290	12	71	31
330	215	190	-37	31
137	48	608	-39	31
-261	-190	587	11	31
-392	-541	-34	33	31
-198	-645	-498	-93	31
95	-539	-821	-134	31
409	-401	-1022	-56	31
323	-56	-610	-71	31
248	106	-197	55	31
247	45	24	99	31
94	-36	-39	-114	31
87	-95	-63	-427	31
-174	39	-93	-440	31
-366	187	-536	-171	31
116	263	-550	300	31
96	335	-94	841	31
-350	307	285	525	31
-203	293	249	178	31
-252	460	149	46	31
-135	626	293	-177	31
-16	518	261	182	31
-62	-300	27	152	31
368	-1080	-34	-219	31
364	-582	22	-403	31
295	300	-4	-250	31
257	782	70	242	31
-21	666	207	467	31
-176	134	295	97	31
-277	-274	385	-445	31
-66	-675	209	-148	31
-236	-701	-253	206	31
-661	-363	-108	91	31
-388	-205	-34	-169	31
-182	-405	-383	-390	31
-100	-475	-145	-350	31
476	-50	307	-149	31
734	223	454	-89	31
310	303	363	-139	31
41	384	154	22	31
197	301	325	148	31
109	277	477	333	31
-254	200	4	380	31
-217	81	-288	179	31
-30	-23	-229	-86	31
-82	-215	-262	-192	31
-98	-221	-73	29	31
46	7	9	185	31
184	156	-367	-5	31
-148	181	-313	-264	31
-220	257	212	-196	31
46	177	621	157	31
-26	-35	314	357	31
180	-112	176	202	31
-84	-48	206	81	31
-335	39	-291	-70	31
58	105	-442	-266	31
262	162	-703	-172	31
274	184	-734	-76	31
49	348	-433	98	31
-31	495	-315	84	31
-116	332	-341	-106	31
-212	-16	-468	-66	31
-30	-453	-109	121	31
113	-884	677	414	31
-66	-826	992	28	31
16	-448	633	-207	31
120	-255	524	58	31
-74	4	345	101	31
214	217	-197	155	31
42	147	-433	-177	31
-447	11	-494	-209	31
-145	24	-485	-63	31
202	147	-224	-104	31
144	184	23	-9	31
119	191	51	-71	31
2	98	89	-90	31
62	-170	188	-129	31
209	-209	246	-21	31
-182	56	200	89	31
-403	169	25	180	31
-137	114	-117	365	31
32	66	10	67	31
-112	-11	255	-290	31
-80	-111	300	-144	31
11	-147	239	-222	31
54	-33	163	-201	31
107	68	266	414	31
86	114	368	436	31
239	174	238	102	31
202	161	102	96	31
94	174	-187	-22	31
124	358	-603	-119	31
68	387	-610	-154	31
-64	124	54	-36	31
-131	-56	266	147	31
-109	-250	-35	-16	31
-167	-170	-74	-3	31
-177	144	-82	1	31
-32	-38	297	-169	31
74	-137	1022	-149	31
86	-181	1314	-292	31
118	-628	550	-204	31
94	-814	-748	-6	31
191	-401	-1794	108	31
325	74	-2197	334	31
41	230	-1463	370	31
-274	346	-468	257	31
-220	283	117	-73	31
-200	174	494	-235	31
-257	148	420	-354	31
-137	130	235	-174	31
-45	149	190	529	31
-8	106	292	437	31
29	180	554	135	31
105	387	663	207	31
122	619	497	21	31
-62	544	254	-16	31
-97	210	149	-21	31
14	-327	29	-62	31
32	-649	-67	-164	31
-2	-212	210	-393	31
21	-59	446	-317	31
151	-441	55	36	31
129	-751	-304	257	31
-19	-624	-375	15	31
116	-165	-166	11	31
205	56	78	52	31
-7	77	147	15	31
22	-46	249	217	31
1	-78	-104	-16	31
-71	34	-347	-379	31
-44	75	-330	-352	31
-177	74	-274	-145	31
-33	147	-292	58	31
64	145	-151	186	31
-92	-16	316	67	31
-86	-25	570	-104	31
199	-2	332	-98	31
316	-21	-68	158	31
0	48	-301	249	31
-114	147	-556	-41	31
190	201	-327	-57	31
199	131	230	31	31
-49	-130	651	-33	31
-42	-352	811	-164	31
-286	-97	642	-92	31
-233	219	57	242	31
-82	312	-573	255	31
-97	388	-1147	14	31
121	367	-1225	-170	31
66	445	-346	-270	31
-31	492	338	-271	31
-199	341	282	-118	31
77	280	9	202	31
213	112	-16	334	31
112	-387	-78	304	31
216	-594	-87	147	31
-69	-506	183	-195	31
-59	-433	420	69	31
3	-126	405	601	31
-6	-16	218	281	31
-50	-47	249	4	31
-99	6	247	16	31
-28	21	155	-89	31
36	179	156	24	31
-6	167	37	-84	31
-202	156	-86	-236	31
-102	249	-91	-177	31
-19	124	-188	-131	31
225	66	-202	-56	31
295	11	-64	169	31
220	-233	81	131	31
251	-332	90	-227	31
11	-393	-48	-319	31
64	-363	-86	-282	31
-65	-101	-318	-311	31
-305	-154	-328	-100	31
-139	-187	157	116	31
-47	-13	443	41	31
27	46	424	89	31
-4	95	335	222	31
-76	98	57	284	31
132	124	-37	-63	31
280	106	223	-394	31
-13	76	222	-222	31
-309	55	171	-119	31
-132	7	-157	-116	31
75	7	-534	93	31
191	14	-430	813	31
62	82	-380	1009	31
-98	184	-142	212	31
-62	378	180	-103	31
-88	606	202	-97	31
-53	507	-29	-277	31
-44	221	-192	-392	31
102	-120	-22	-359	31
57	-453	194	-191	31
-84	-397	258	-111	31
-130	-337	254	183	31
-94	-356	275	302	31
66	-223	384	111	31
25	-190	631	17	31
-29	-164	516	-89	31
-4	-63	328	-58	31
115	-2	-191	172	31
11	1	-1422	540	31
7	77	-1548	510	31
128	211	-785	-168	31
-46	92	-523	-427	31
1	-112	-502	-180	31
29	-34	-212	-181	31
-161	72	-99	-327	31
-120	134	-43	-390	31
-102	114	263	-101	31
-59	22	428	204	31
48	20	452	229	31
-80	10	46	69	31
36	53	-55	-24	31
131	77	216	-35	31
-26	77	333	79	31
-59	53	384	297	31
171	32	311	87	31
250	18	181	-12	31
-80	-59	6	-34	31
96	-54	-31	-147	31
144	31	71	-80	31
-99	281	255	-42	31
-42	405	332	77	31
-89	140	281	-36	31
-95	-142	181	-126	31
-136	-357	-39	-27	31
-106	-325	-65	-81	31
-16	-107	-87	96	31
8	-71	-4	260	31
49	-33	446	21	31
71	-84	537	-4	31
64	-182	274	16	31
52	-72	-129	-279	31
97	137	-431	-365	31
54	491	-432	-292	31
27	660	-326	-101	31
7	463	38	-51	31
-106	187	-128	256	31
-106	-295	-576	951	31
-6	-682	-321	609	31
-97	-520	-221	-87	31
-226	-62	-217	92	31
-20	259	-18	93	31
-65	185	-74	-106	31
-262	84	-152	55	31
-11	-93	-104	-33	31
-21	-149	209	-201	31
-11	249	368	-247	31
350	179	328	-213	31
309	-78	370	-81	31
293	-204	143	-39	31
107	-385	-21	16	31
-194	-345	96	69	31
-26	-234	145	62	31
16	16	-2	29	31
29	158	-204	-7	31
-39	145	-346	-41	31
-52	27	-290	-106	31
-2	-87	127	-182	31
-24	-121	444	-161	31
-7	-129	271	-46	31
-12	44	39	-2	31
84	64	-211	34	31
2	133	-440	-1	31
-37	295	-151	-115	31
1	328	77	-11	31
53	220	86	212	31
106	-121	217	300	31
88	-242	209	83	31
72	-202	126	-9	31
19	-135	5	142	31
9	99	-56	158	31
-49	320	12	81	31
-62	445	79	24	31
-72	250	58	26	31
-94	-78	-69	-17	31
-72	-302	-72	-33	31
-57	-333	109	-186	31
-12	-200	246	-366	31
10	-305	328	-150	31
48	-288	234	305	31
58	-188	-66	650	31
61	-107	-202	545	31
82	169	-186	-34	31
70	204	-419	-441	31
51	214	-480	-349	31
42	357	-39	-316	31
28	430	4	-326	31
-42	508	-240	-157	31
-96	653	-636	-164	31
-136	503	-625	-195	31
-155	-104	14	347	31
-169	-784	-24	1018	31
-160	-1101	226	388	31
115	-680	784	-351	31
234	-62	611	-89	31
-26	202	191	1	31
-63	240	-395	183	31
-281	464	-467	250	31
-598	701	-136	112	31
107	448	204	-265	31
289	82	676	-487	31
137	-336	490	-153	31
523	-727	202	-159	31
-85	-533	200	-61	31
-179	-104	84	-41	31
11	52	217	-40	31
-240	64	279	-11	31
-52	59	136	-64	31
-25	47	-55	-3	31
108	24	-70	54	31
180	6	-115	181	31
164	-11	-368	68	31
167	7	-304	12	31
172	52	23	-16	31
216	62	222	-51	31
109	10	66	-26	31
126	-51	-111	-19	31
81	-26	-439	111	31
26	39	-540	120	31
-3	72	31	41	31
-71	76	244	16	31
-96	57	67	-46	31
-141	-23	-275	-52	31
-97	-21	-465	151	31
-107	69	-20	296	31
-87	51	272	158	31
-17	47	362	12	31
-17	36	357	16	31
22	31	-26	-34	31
60	35	-177	9	31
108	-17	-172	62	31
109	0	-181	-39	31
111	4	77	-183	31
109	32	131	-280	31
21	132	-119	-190	31
-14	155	-223	167	31
-1	43	-294	385	31
-40	-72	-272	12	31
-72	-92	-8	-282	31
-71	61	161	-201	31
-80	235	175	21	31
-54	62	210	92	31
-44	-192	345	6	31
-24	-355	384	61	31
8	-323	337	31	31
11	-22	229	-34	31
41	104	-107	-161	31
27	219	-352	-327	31
11	285	-458	-289	31
21	270	-364	136	31
11	405	-22	528	31
-26	390	357	497	31
-20	75	547	324	31
-19	-461	385	242	31
-84	-721	36	278	31
-67	-588	-159	-69	31
-39	-227	-207	-242	31
-67	28	-257	-81	31
-64	53	-86	-245	31
-101	451	129	-520	31
-129	569	204	-530	31
152	-49	206	-91	31
275	-702	116	-6	31
-38	-864	-211	-76	31
-33	-433	-312	-1	31
88	173	64	-36	31
93	703	221	22	31
49	835	106	-15	31
-15	524	-96	89	31
-37	264	-246	162	31
-135	-215	-291	138	31
-179	-982	-229	141	31
-222	-817	12	141	31
-41	-227	240	88	31
121	-258	311	-5	31
70	-53	269	-74	31
17	22	347	-120	31
96	-71	192	-19	31
92	159	-8	49	31
-141	161	-37	154	31
-134	198	-431	207	31
75	187	-583	131	31
210	104	-149	36	31
109	134	140	-36	31
61	116	100	-50	31
50	139	96	-81	31
-6	127	-87	-57	31
-3	142	-292	-54	31
-78	167	-275	-89	31
-25	120	-213	-73	31
-58	70	-169	28	31
-46	30	-201	-30	31
44	-6	-3	-33	31
21	-14	170	125	31
21	211	295	105	31
16	518	462	166	31
44	451	508	181	31
37	196	272	-147	31
121	-270	-12	-360	31
153	-795	44	159	31
98	-518	21	383	31
71	-52	-39	166	31
-79	61	-162	-161	31
-117	293	-284	-455	31
-158	429	-112	29	31
-209	353	93	319	31
-131	-177	274	121	31
-119	-706	334	6	31
-14	-493	251	132	31
-12	-166	111	120	31
-181	57	-94	-46	31
-62	129	-262	-150	31
141	175	-134	-214	31
140	377	197	-42	31
152	395	324	4	31
117	301	337	-102	31
41	109	108	-80	31
85	-92	-399	32	31
56	-257	-954	-62	31
-41	-347	-1004	-215	31
-49	-327	-403	-89	31
-32	-300	-13	-27	31
21	-200	140	-17	31
-4	-2	252	83	31
-137	388	330	86	31
-107	776	382	45	31
9	623	277	27	31
39	-104	209	19	31
51	-619	224	38	31
58	-688	53	113	31
69	-307	-344	109	31
82	225	-801	107	31
50	162	-894	86	31
19	175	-271	-16	31
91	189	220	-71	31
150	12	195	-18	31
104	35	328	7	31
26	-159	474	-131	31
-36	-237	405	-88	31
-32	-177	309	2	31
-64	-34	207	79	31
-88	33	146	121	31
-67	59	79	-21	31
-60	452	27	-75	31
-14	482	81	-29	31
48	164	96	63	31
12	-313	17	88	31
-81	-676	-121	76	31
6	-475	-96	22	31
87	-318	24	4	31
42	-88	26	-21	31
27	155	79	-181	31
6	214	44	-164	31
3	104	-122	-97	31
-36	-263	-197	-62	31
-75	-163	-83	196	31
-79	108	-34	247	31
-139	423	-76	-38	31
-164	877	32	-66	31
-25	746	139	-34	31
135	373	214	99	31
74	-185	199	380	31
76	-914	173	232	31
86	-874	118	-81	31
-31	-270	-149	-86	31
64	27	-309	-44	31
79	73	-275	34	31
-59	159	-304	222	31
-32	99	-317	4	31
-56	2	-137	-241	31
-250	93	55	-191	31
-192	265	25	-89	31
-62	425	67	44	31
-100	535	167	89	31
11	602	145	8	31
39	320	146	-117	31
64	-282	182	-54	31
98	-886	189	-12	31
61	-1035	58	-39	31
103	-222	56	-25	31
41	315	129	-26	31
76	139	112	-13	31
137	275	262	-4	31
70	400	288	17	31
1	332	7	17	31
11	295	-292	49	31
55	-172	-400	68	31
-22	-757	-543	35	31
-76	-679	-600	-21	31
-46	-358	-368	-72	31
-13	-144	-192	-92	31
-90	-124	73	-111	31
-156	6	269	57	31
-44	265	380	270	31
9	301	402	139	31
49	307	246	-24	31
129	223	286	-49	31
113	237	387	-87	31
66	76	414	27	31
39	-42	348	120	31
7	16	79	78	31
-31	-207	-417	26	31
-43	-136	-624	-14	31
-99	56	-332	-44	31
-183	4	-17	-52	31
-155	-71	77	-25	31
-65	60	-179	-43	31
-45	160	-382	-83	31
-17	-113	-505	-46	31
-37	-172	-571	-44	31
-51	-64	-77	31	31
8	-97	269	137	31
-2	-88	252	-14	31
60	150	368	-96	31
89	820	465	-38	31
119	1501	475	-70	31
134	1429	446	-89	31
58	521	552	-137	31
26	-868	397	-50	31
-11	-2081	-141	59	31
-7	-1908	-443	-11	31
-59	-868	-669	134	31
-95	-214	-696	91	31
-67	63	-625	-42	31
-8	207	-624	116	31
-4	654	-298	10	31
-82	1193	-36	17	31
5	1072	126	121	31
188	300	311	225	31
134	-450	453	429	31
-67	-835	438	186	31
26	-803	227	-24	31
113	-469	27	-67	31
29	-152	-165	-149	31
-74	-34	-174	-169	31
-100	48	-84	-239	31
7	139	60	-102	31
-45	284	288	173	31
-60	505	476	188	31
6	335	663	-22	31
-25	79	661	-57	31
-56	-116	312	-68	31
-74	-279	-131	-116	31
-64	-30	-578	-34	31
6	95	-786	-27	31
42	-26	-501	-20	31
31	12	-377	-14	31
97	63	-294	-44	31
167	156	-94	-66	31
187	256	31	-19	31
157	336	206	99	31
84	360	312	67	31
-63	220	413	7	31
-271	74	424	32	31
-233	-304	307	17	31
-72	-532	152	-41	31
-2	-267	46	-53	31
50	-123	-9	21	31
84	-41	-58	34	31
189	43	-89	25	31
186	-22	-133	15	31
131	-163	-75	-41	31
166	-177	-41	-39	31
138	199	-37	-3	31
79	344	7	61	31
-14	175	-20	126	31
-44	175	-34	79	31
-52	227	-21	30	31
-112	416	29	14	31
-45	457	49	-64	31
61	122	-11	-136	31
-43	-327	-19	-80	31
-92	-238	-2	157	31
-9	455	12	159	31
-88	630	-8	-15	31
-75	123	-105	-21	31
-42	-622	-119	-32	31
-71	-1238	-141	-16	31
1	-993	-179	-59	31
24	-401	-78	-96	31
17	-170	55	-65	31
60	19	235	79	31
102	121	366	353	31
44	231	309	188	31
-54	272	56	-108	31
-75	151	-159	-193	31
-84	-26	-142	-192	31
-101	-244	-134	-99	31
-61	-95	23	-153	31
19	140	292	-47	31
39	174	428	14	31
28	310	433	-50	31
37	520	2	182	31
16	578	-338	417	31
14	352	-535	394	31
14	-165	-973	219	31
20	-564	-973	50	31
44	-367	-253	-177	31
38	27	287	-321	31
49	122	175	-230	31
61	-117	128	-132	31
69	-315	82	-91	31
18	-242	171	2	31
16	-94	570	141	31
25	90	883	193	31
-171	77	685	9	31
-152	73	242	-110	31
-7	145	-29	-87	31
38	368	-494	-74	31
72	958	-540	-72	31
-25	1184	-274	-107	31
-13	799	-202	16	31
37	-52	-330	169	31
36	-1027	-327	159	31
32	-1383	-90	98	31
11	-1223	5	46	31
51	-833	234	-37	31
30	-216	398	-94	31
-7	385	319	-136	31
14	720	86	-132	31
-7	651	-200	115	31
-87	175	-473	252	31
-94	-378	-505	68	31
-79	-710	-54	-2	31
-59	-454	259	-1	31
4	-54	362	-32	31
52	-57	350	-7	31
12	98	115	5	31
-25	191	13	32	31
67	152	87	24	31
59	225	151	25	31
49	310	39	3	31
77	481	-11	-17	31
57	420	36	16	31
57	183	52	33	31
-30	-215	57	-24	31
-86	-416	71	-136	31
-92	2	76	-123	31
-80	453	-163	-49	31
-29	405	-334	20	31
-9	-61	-179	8	31
4	-310	-7	-3	31
30	-249	65	72	31
93	-32	102	81	31
119	169	178	77	31
33	49	274	69	31
17	-293	175	109	31
90	-547	25	81	31
98	-306	-105	-8	31
77	-22	-260	9	31
29	38	-261	-9	31
9	134	-99	-37	31
-5	148	-6	-34	31
-69	184	-32	-20	31
-90	175	-29	17	31
-93	149	-48	36	31
-111	173	-39	8	31
-102	210	-106	-33	31
-28	203	-112	-67	31
89	50	76	-118	31
66	-77	167	-134	31
14	-157	130	-78	31
134	-64	94	-59	31
197	123	131	-51	31
117	130	154	-37	31
13	9	126	-66	31
-14	76	75	-47	31
47	712	-32	134	31
116	1040	-31	344	31
-69	565	161	264	31
-257	-228	328	157	31
-89	-1266	372	-42	31
-82	-1450	237	-450	31
-64	-842	-1	-176	31
-13	-337	-180	169	31
-98	119	-559	-104	31
-88	238	-817	-171	31
-127	373	-656	118	31
-47	323	-230	258	31
20	84	465	59	31
76	14	629	11	31
80	-139	422	65	31
4	-75	380	46	31
19	-216	96	46	31
14	-468	-41	-2	31
72	-192	-24	3	31
39	83	19	-48	31
-34	107	99	-78	31
-27	74	-120	35	31
-79	76	-601	104	31
-146	106	-918	-64	31
-105	119	-611	-229	31
5	92	-93	-200	31
53	26	62	-14	31
79	229	-139	380	31
89	546	-142	395	31
84	336	-164	10	31
6	48	-51	42	31
64	66	238	145	31
198	167	340	-42	31
68	370	559	-112	31
11	56	344	-87	31
-8	-525	287	-70	31
-84	-589	398	-98	31
-77	-518	290	-54	31
-61	-405	275	17	31
-31	-66	137	-18	31
-39	119	139	0	31
-65	241	130	-40	31
31	463	167	-91	31
108	405	75	-3	31
34	443	-190	149	31
71	265	-113	-2	31
74	-293	-172	-267	31
71	-516	-635	-53	31
107	-557	-635	-39	31
28	-390	-46	-72	31
101	39	98	24	31
86	310	192	-4	31
-91	341	661	110	31
-114	315	595	63	31
-100	109	182	55	31
-106	132	-309	39	31
-97	439	-771	-24	31
-94	475	-1179	-71	31
-64	412	-1351	-117	31
-59	-39	-689	-48	31
-66	-462	125	61	31
-14	-624	664	226	31
82	-1199	866	164	31
62	-1049	769	-64	31
-21	-247	446	-92	31
103	19	4	92	31
144	137	71	234	31
91	135	458	178	31
41	87	623	86	31
-17	106	463	77	31
82	77	-79	93	31
29	121	-626	102	31
-96	133	-523	-39	31
-88	165	-296	-202	31
-64	194	-346	-264	31
-87	211	-208	-255	31
-90	198	102	-23	31
2	158	257	83	31
67	130	343	7	31
64	44	496	15	31
52	-6	363	70	31
54	-10	211	153	31
89	-42	67	214	31
134	-150	2	172	31
70	-54	127	24	31
-14	323	-86	-47	31
-34	386	-271	-76	31
-72	241	-205	-151	31
-79	116	-206	-109	31
-64	-100	-509	67	31
-42	-167	-922	92	31
-8	-189	-885	20	31
29	-144	-506	94	31
39	-34	44	119	31
3	1	507	-121	31
21	146	611	-311	31
-16	247	591	-113	31
-61	172	563	19	31
-77	-12	396	11	31
-127	-200	150	59	31
-52	-305	82	-100	31
-17	-210	157	-305	31
3	2	230	-363	31
77	214	280	-39	31
41	881	306	190	31
-29	1535	358	-122	31
-97	1156	200	-89	31
-82	83	-343	49	31
-11	-1126	-927	-189	31
-7	-2150	-909	-175	31
17	-1918	-704	142	31
67	-633	-595	448	31
114	-32	-42	445	31
122	6	636	325	31
82	119	753	229	31
56	192	414	145	31
6	387	151	220	31
-38	363	-222	159	31
-59	278	-304	57	31
-91	144	-192	47	31
-102	-135	-181	4	31
-133	31	-230	-186	31
-131	431	-130	-324	31
-34	595	194	-195	31
42	461	402	-181	31
144	292	555	-168	31
192	177	44	87	31
68	-43	-602	-36	31
-15	-342	-1008	-274	31
-80	-694	-722	-181	31
-79	-692	463	-87	31
41	-382	1183	257	31
102	-152	934	392	31
182	27	615	289	31
144	59	199	358	31
-1	62	-365	83	31
-16	82	-270	-235	31
-55	111	-449	-17	31
-107	105	-762	-64	31
-184	62	-862	-269	31
-93	127	-545	112	31
115	145	-175	-3	31
91	165	-312	-27	31
63	168	212	-42	31
24	85	640	-352	31
-9	47	754	-264	31
2	31	615	-311	31
-10	34	-288	-103	31
111	-2	-799	236	31
193	7	-150	432	31
174	96	909	20	31
152	137	1410	-194	31
78	234	1000	105	31
-22	249	70	-72	31
-82	-2	-405	52	31
-76	-225	-498	117	31
-44	-194	-176	-107	31
-13	-196	195	-430	31
-27	-192	436	-532	31
-102	-72	372	-405	31
-197	-2	-304	-61	31
-246	20	-322	630	31
-225	-57	96	658	31
-161	-26	276	667	31
-4	39	69	523	31
198	24	-468	-402	31
329	-2	-271	-1274	31
307	-104	343	-1291	31
151	-157	309	-696	31
4	-145	99	259	31
-131	12	-103	1550	31
-186	264	-714	1610	31
-191	637	-917	360	31
-159	795	-563	-229	31
-47	307	-595	931	31
-71	-486	-559	1176	31
-111	-1028	-249	-437	31
-14	-835	-481	-555	31
119	-401	-831	-21	31
199	-140	-1069	332	31
254	129	-41	526	31
285	323	1636	-147	31
224	368	2244	-201	31
52	242	2415	-715	31
-149	186	2001	-992	31
-198	198	318	-719	31
-299	136	-1295	-600	31
-262	49	-1348	583	31
-40	108	-2016	937	31
-38	161	-1225	190	31
-1	-39	997	-79	31
26	-249	581	-24	31
19	-237	435	-518	31
69	-61	290	-262	31
95	111	-589	357	31
105	234	-162	-29	31
1	124	132	-94	31
-51	-24	219	-68	31
-69	-28	535	-745	31
-166	-40	907	-1040	31
-179	-57	204	-652	31
-34	6	-1395	-259	31
46	168	-2501	954	31
49	52	-1896	705	31
24	-250	64	-163	31
-114	-353	494	911	31
-249	-110	585	2186	31
-264	142	906	1108	31
-77	-1	1284	-453	31
162	-43	2098	-657	31
284	17	774	-1793	31
317	-55	-352	-913	31
315	-82	78	-235	31
277	10	-302	-236	31
197	235	-259	301	31
94	475	354	-72	31
-4	652	792	648	31
-141	546	1375	615	31
-280	223	1494	603	31
-260	-41	751	771	31
-135	-317	-768	131	31
-27	-466	-2452	-933	31
-91	-462	-3571	-1604	31
-156	-353	-2341	-944	31
-75	-220	733	141	31
-105	-372	1534	1227	31
-68	-501	1025	1971	31
132	-189	-369	1012	31
248	225	-1812	-579	31
239	197	-741	-240	31
159	55	485	-477	31
89	-6	675	-500	31
-31	-29	302	-214	31
-66	5	67	-1341	31
-16	-12	83	-1137	31
-73	142	-388	-497	31
-79	174	-21	-324	31
3	59	609	62	31
95	2	-98	164	31
71	-137	213	174	31
-11	-204	622	1429	31
-2	-109	661	1887	31
-52	153	1013	817	31
-152	316	220	528	31
-161	242	-634	-771	31
-58	205	-915	-1196	31
173	271	-29	-197	31
348	238	367	-76	31
274	101	10	111	31
152	-11	397	1	31
61	-71	596	134	31
9	-38	678	149	31
-59	-29	443	-167	31
-187	-38	-87	507	31
-156	-21	-593	708	31
-104	-33	-558	33	31
-123	-16	-641	-101	31
-86	-26	-363	-2	31
99	-20	364	189	31
164	-22	385	194	31
6	-42	271	-210	31
-36	4	54	-402	31
-219	-25	-101	-691	31
-395	-54	-1032	-842	31
-364	-34	-1080	-405	31
-160	-36	-311	-219	31
127	-41	413	-522	31
114	-52	298	-536	31
112	-59	-989	-212	31
159	-37	-660	501	31
177	-11	-94	1187	31
178	-24	560	857	31
63	-82	1020	82	31
-22	-104	825	-416	31
-77	-35	343	-98	31
-47	19	-318	286	31
19	64	732	311	31
55	86	1065	389	31
65	46	285	274	31
34	86	-316	-417	31
61	106	-1203	-145	31
91	24	-1405	206	31
20	-21	-1290	-284	31
-9	-44	-554	-346	31
-21	-29	558	-1018	31
-143	24	770	-1106	31
-124	40	318	-751	31
-57	83	309	56	31
-122	80	752	1024	31
-136	-27	901	1139	31
-131	-51	874	854	31
-39	-42	490	321	31
72	21	-508	515	31
77	189	-1107	158	31
113	199	-400	-770	31
104	129	468	-564	31
57	12	699	-124	31
67	-137	1079	252	31
39	-178	861	114	31
19	-112	-215	76	31
78	-19	-897	44	31
26	-80	-1319	-74	31
-80	-66	-1536	685	31
-60	-39	-1203	567	31
-114	-109	-806	860	31
-170	-53	-145	590	31
-118	12	553	-711	31
-99	48	493	-462	31
-80	41	171	77	31
-22	19	543	235	31
112	7	1105	3	31
238	-46	-518	-380	31
252	-71	-1249	-781	31
232	-24	180	-808	31
176	15	998	-473	31
97	56	1192	-142	31
64	103	416	-21	31
11	43	768	-472	31
-54	11	1253	-943	31
-50	13	758	-763	31
-32	83	-669	1006	31
-60	185	-2496	2542	31
-152	84	-1876	1011	31
-203	35	-406	-498	31
-100	10	151	-214	31
-32	-76	355	-329	31
-16	-42	405	-83	31
144	-14	-330	80	31
240	-14	-397	236	31
226	-15	480	329	31
212	-21	1001	-56	31
127	-13	1223	-22	31
49	11	358	-127	31
21	7	-565	-227	31
71	-36	-852	-475	31
59	-6	-347	-286	31
-69	31	162	68	31
-200	14	-235	-66	31
-209	2	-56	-275	31
-158	-4	-167	-673	31
-183	-59	-114	-244	31
-76	-152	-71	662	31
-27	-147	-12	703	31
14	-85	1097	290	31
72	0	901	403	31
123	97	-97	211	31
214	165	-634	-250	31
137	205	-210	-140	31
102	117	403	-265	31
36	41	342	-167	31
24	63	189	6	31
20	45	-225	21	31
-41	10	-497	57	31
77	-12	-748	-39	31
92	8	-325	-57	31
-46	9	218	-346	31
-61	-24	193	-445	31
-11	-22	244	-164	31
-29	-35	320	126	31
12	-26	485	58	31
40	-7	269	175	31
2	6	-122	395	31
-8	4	-351	151	31
11	-12	-414	142	31
57	17	-272	452	31
67	16	-96	556	31
16	-8	50	102	31
-48	-12	-27	89	31
-79	-10	-156	157	31
-101	-12	133	37	31
-108	-14	695	-336	31
-94	5	611	-311	31
-26	3	-39	325	31
-7	-25	-819	66	31
-11	-27	-1235	-251	31
27	2	-798	-452	31
-36	6	-104	-496	31
16	9	407	-304	31
92	6	497	-234	31
39	-7	588	-209	31
65	-7	388	15	31
67	-19	-142	209	31
112	7	-186	91	31
54	38	-270	126	31
-94	49	61	92	31
-130	139	437	65	31
-136	196	434	-24	31
-56	-57	42	-146	31
-160	-160	-464	-62	31
-142	368	-1	11	31
40	604	364	66	31
-6	297	660	107	31
44	-2	-142	235	31
-66	-430	-749	365	31
-134	-576	-88	400	31
132	-403	-180	119	31
101	-406	80	-71	31
18	-378	8	-8	31
64	-217	-166	-55	31
59	-51	-6	-35	31
50	18	109	-72	31
-34	44	460	-146	31
-64	64	438	-197	31
-92	52	88	0	31
-68	54	-158	245	31
6	51	434	79	31
-12	108	1247	-56	31
112	164	814	91	31
204	194	-786	167	31
121	274	-1934	-99	31
41	182	-1316	-211	31
-38	-157	-232	24	31
13	-110	-362	7	31
47	358	-24	-55	31
74	366	194	-13	31
36	124	223	-37	31
-22	-101	600	-25	31
41	-426	239	-52	31
-56	-358	252	-22	31
-76	-130	126	16	31
14	-55	99	28	31
10	44	182	8	31
-136	100	169	-44	31
-233	187	229	-6	31
-159	179	15	4	31
-31	49	41	-6	31
19	-1	-95	69	31
19	-66	-148	143	31
58	-52	-20	-19	31
37	83	-142	-129	31
66	161	-75	-58	31
57	-39	156	-21	31
48	-256	107	35	31
102	-121	-40	-34	31
49	-11	-133	-99	31
-150	12	-226	-122	31
-179	147	-187	12	31
-22	338	2	261	31
-96	342	57	190	31
-35	155	-108	-1	31
40	-7	-60	-62	31
64	-341	113	-17	31
95	-488	241	232	31
21	-246	-172	315	31
111	-35	-854	11	31
66	210	-564	-193	31
95	609	471	-231	31
174	839	987	-107	31
88	611	257	55	31
66	22	-468	-34	31
18	-689	-166	-174	31
-69	-1048	369	-253	31
2	-784	603	-204	31
7	-207	555	-177	31
-127	70	302	-363	31
-62	194	64	-374	31
-76	355	11	-238	31
-36	378	6	348	31
53	423	-162	921	31
37	-235	-398	597	31
89	-1073	-275	232	31
41	-724	204	62	31
-4	-98	645	-77	31
16	111	618	37	31
164	184	102	74	31
314	210	-372	-19	31
8	265	-788	-66	31
-288	94	-936	-28	31
-96	65	-838	14	31
-29	508	-517	-34	31
-94	1044	6	-43	31
-17	1248	120	19	31
-52	563	255	91	31
-99	-299	427	63	31
4	-643	338	17	31
17	-1018	131	41	31
-25	-1047	-100	-15	31
-13	-352	-295	-104	31
-62	128	-267	-171	31
68	178	-29	-158	31
126	44	12	-14	31
49	-237	79	-24	31
106	-273	11	-107	31
79	-318	-274	-54	31
49	-150	-197	-60	31
-22	138	199	-52	31
-149	55	488	8	31
-134	137	358	109	31
-72	128	34	155	31
-39	89	-45	107	31
6	150	11	131	31
2	117	207	79	31
-22	225	366	71	31
60	355	186	67	31
107	422	29	-31	31
153	321	-21	-57	31
124	181	11	-44	31
-44	59	133	-29	31
24	273	280	-32	31
11	596	532	7	31
-52	364	372	24	31
0	-50	-84	17	31
-99	-904	-256	-6	31
11	-1359	-641	-43	31
-57	-511	-633	-64	31
-230	261	-321	-51	31
5	318	-376	12	31
59	77	-329	-27	31
159	-105	-323	-71	31
99	-353	-46	-107	31
-49	-400	210	-206	31
112	-14	330	-218	31
1	-81	384	76	31
152	-285	386	555	31
229	-7	289	540	31
24	92	-26	221	31
-159	153	162	74	31
-82	329	253	-86	31
115	368	-4	-124	31
-66	311	-252	-257	31
-9	154	-506	-314	31
-274	-27	-545	-29	31
-329	-169	-373	-102	31
27	-57	39	-17	31
40	37	441	264	31
74	-121	671	101	31
-49	-257	649	106	31
-29	-135	290	2	31
77	74	-77	-79	31
22	64	-289	18	31
36	84	-420	-132	31
95	106	-368	-194	31
64	52	-410	-123	31
-9	72	-167	69	31
-85	96	380	55	31
-141	172	672	84	31
-53	235	614	270	31
-22	270	268	167	31
-114	337	86	54	31
-217	302	-295	34	31
-169	119	-605	8	31
16	-132	-583	-112	31
102	-440	-347	-208	31
133	-616	-29	-296	31
47	-403	-134	-323	31
-129	-129	-101	-41	31
-56	-92	32	225	31
51	-68	130	161	31
146	-1	239	112	31
151	82	291	204	31
50	326	304	156	31
232	944	62	61	31
-171	1427	127	-44	31
-345	1281	340	-96	31
97	751	267	-60	31
83	-978	65	147	31
-131	-2293	-16	224	31
-343	-1617	308	-234	31
20	-1066	336	-294	31
232	-503	-86	78	31
142	-39	-398	-54	31
94	-14	-593	-159	31
-97	202	-590	-123	31
-107	189	-313	-134	31
-18	305	-42	12	31
117	277	139	141	31
96	247	288	72	31
74	344	9	-131	31
-17	322	-465	-47	31
47	480	-845	144	31
109	358	-850	332	31
-52	19	-633	313	31
-246	-14	-398	192	31
-223	86	50	224	31
55	95	297	206	31
139	94	493	62	31
146	270	570	-21	31
57	563	439	-83	31
126	284	545	-445	31
66	-308	512	-549	31
-91	-292	132	-261	31
-20	-88	106	-76	31
-52	-21	172	109	31
-7	239	-19	224	31
1	37	59	16	31
287	-456	280	-6	31
443	-441	701	-25	31
-271	-646	1086	-89	31
-517	-776	771	60	31
11	-262	183	1	31
-96	348	-199	17	31
-272	609	-586	64	31
-67	549	-764	32	31
7	551	-496	-4	31
60	729	-190	-41	31
-84	696	-126	1	31
162	178	-142	57	31
80	-601	-555	110	31
-263	-1180	-926	85	31
2	-841	-343	192	31
70	-327	397	239	31
224	-235	618	112	31
67	-238	496	26	31
-254	-388	338	-22	31
-253	-258	39	-19	31
-176	-111	-269	49	31
104	47	-525	136	31
1	272	-610	-2	31
12	305	-333	-267	31
182	664	-183	-420	31
8	1107	44	-392	31
49	779	146	-280	31
145	91	149	34	31
285	-219	101	129	31
371	-421	-16	-127	31
285	-420	136	24	31
-51	-174	167	129	31
-274	552	335	180	31
-84	810	849	82	31
-141	-326	1119	87	31
-59	-1304	813	264	31
-155	-1464	393	37	31
-277	-886	-290	162	31
-124	-283	-1017	229	31
-100	228	-1119	178	31
87	747	-844	241	31
204	869	-506	62	31
319	881	-54	-309	31
275	243	256	-359	31
-47	-392	-196	-131	31
-154	-466	-93	-101	31
144	-387	221	139	31
294	-59	183	106	31
-146	152	345	-39	31
-463	228	413	-76	31
-117	283	904	-97	31
62	235	701	39	31
-3	234	133	9	31
138	154	51	-13	31
-72	-91	-408	-160	31
-388	-317	-664	-369	31
-571	-163	-447	-334	31
-524	326	-300	130	31
-7	309	-108	512	31
443	151	61	156	31
551	298	45	-118	31
266	127	-142	-25	31
116	-226	-290	-9	31
442	-500	-267	41	31
361	-422	-252	2	31
-16	-285	68	50	31
-8	-151	324	141	31
-38	325	294	194	31
-122	607	64	205	31
-31	723	-252	-11	31
-61	634	-282	-240	31
21	84	-412	-162	31
171	-626	46	290	31
-109	-677	668	252	31
-236	-237	624	-304	31
92	14	551	-189	31
277	178	247	106	31
53	192	-79	-92	31
-183	317	-161	-27	31
-47	274	-105	111	31
168	51	-187	86	31
90	-170	-159	16	31
-170	-357	167	-99	31
-157	-149	-365	-177	31
-36	259	-1017	-231	31
86	511	-742	16	31
62	328	-437	228	31
81	39	-1	-86	31
134	-503	758	-392	31
-336	-1056	1142	-139	31
-488	-955	992	69	31
-172	-515	446	-176	31
42	194	-76	-98	31
-178	618	-406	294	31
-157	365	-971	114	31
89	-227	-902	-272	31
-100	-687	-51	-88	31
146	-371	590	492	31
296	430	623	466	31
93	1034	374	75	31
106	1153	19	130	31
48	879	-414	320	31
-35	260	-365	543	31
127	-286	-46	256	31
111	-184	411	-179	31
-366	-31	595	-212	31
-234	-184	378	-317	31
172	-422	54	-185	31
178	-566	-238	-29	31
227	-342	-212	-36	31
119	-99	-172	11	31
-8	-52	134	46	31
25	-120	660	15	31
31	-232	691	-117	31
-54	-39	621	-135	31
-24	306	397	-22	31
134	516	-285	92	31
197	450	-823	-69	31
-89	112	-817	-213	31
-104	-185	-730	-42	31
163	-379	-732	-131	31
179	-259	-320	-147	31
-23	-9	-7	-102	31
-82	-117	-241	-287	31
156	-132	-545	84	31
-132	44	-505	496	31
-334	52	-194	567	31
-417	41	327	234	31
277	40	646	-399	31
833	71	561	-402	31
95	154	511	-206	31
122	210	438	40	31
8	207	357	197	31
-90	-8	507	55	31
26	-230	500	-37	31
-56	-94	256	-3	31
89	66	40	199	31
-12	14	-688	167	31
-50	-107	-1117	-31	31
-92	-169	-393	-261	31
131	-64	350	-372	31
198	-31	781	122	31
-19	-54	962	445	31
-181	-165	274	307	31
-3	-265	-217	177	31
113	-187	-470	-191	31
-136	-165	-858	-353	31
-171	-51	-474	-299	31
-260	169	141	-250	31
-27	343	467	-65	31
-30	352	463	187	31
-47	240	238	388	31
-87	246	-620	643	31
-18	335	-945	518	31
293	339	-733	-77	31
-353	215	-831	-146	31
-465	-2	-309	-116	31
-111	-147	243	-77	31
201	-54	496	-9	31
313	-17	613	59	31
75	-86	471	-3	31
119	76	172	-199	31
-11	425	17	-65	31
57	508	87	56	31
-51	142	-21	74	31
-104	-613	-207	-234	31
71	-1046	-128	-369	31
16	-541	-51	-332	31
51	-120	72	-129	31
-60	2	526	346	31
-31	150	621	166	31
6	231	779	-2	31
-89	259	877	-35	31
-38	161	204	-281	31
3	79	-220	-189	31
287	7	-619	169	31
245	209	-1024	432	31
-96	342	-653	207	31
-180	69	-89	7	31
-430	-227	-22	-37	31
-89	-358	101	-106	31
254	-593	208	-149	31
85	-887	-1	-211	31
369	-272	-90	-70	31
227	426	-109	136	31
-125	31	142	250	31
-279	-336	314	332	31
-591	-323	281	119	31
-488	-220	240	-304	31
-235	96	219	-166	31
69	254	342	248	31
323	347	242	414	31
281	280	-30	79	31
284	93	-126	-290	31
234	142	-127	-265	31
103	59	-400	-225	31
71	6	-552	-157	31
41	28	-474	-324	31
-47	17	-373	90	31
-106	65	-173	450	31
-107	-20	-19	66	31
-71	2	38	36	31
-99	66	140	-77	31
-97	-14	269	-167	31
-39	-179	274	-59	31
17	-227	146	-32	31
197	7	-275	-28	31
177	187	-529	179	31
-58	342	-199	372	31
15	418	335	56	31
-251	332	385	-69	31
-380	335	292	111	31
214	307	387	165	31
185	143	438	51	31
204	-73	674	-91	31
184	-217	626	-122	31
-375	-216	32	-81	31
-554	-197	-695	168	31
-659	-169	-974	87	31
-270	-44	-589	-269	31
508	-25	-133	-410	31
537	26	87	-530	31
1	119	44	-118	31
-116	25	-304	944	31
197	10	-606	967	31
418	6	-387	14	31
330	-19	175	-116	31
97	-31	585	-39	31
129	-113	941	-317	31
-17	-26	847	-337	31
-47	197	291	-367	31
206	92	-1	-334	31
176	-273	-357	-59	31
240	-215	-608	336	31
84	46	-430	291	31
-181	61	-498	-139	31
-229	29	-686	-4	31
-257	11	-322	195	31
-235	30	132	202	31
-277	26	482	115	31
-164	2	755	-139	31
47	-1	491	-61	31
200	-34	295	105	31
217	-7	181	-29	31
85	98	-249	-198	31
-322	267	-362	-26	31
-37	332	-126	83	31
478	258	-255	216	31
34	207	-251	281	31
-14	93	-133	35	31
-39	-46	-224	3	31
-230	-184	79	6	31
-96	-386	194	-34	31
71	-477	29	-56	31
-35	-506	35	-39	31
-234	-349	185	-26	31
-12	-99	275	-1	31
15	-165	127	-79	31
62	-167	23	-296	31
136	-57	131	-156	31
72	-3	427	136	31
156	120	465	260	31
6	169	146	97	31
52	149	-81	-38	31
111	18	-279	110	31
-46	-24	-565	14	31
19	83	-531	-339	31
-77	-12	-109	-501	31
-124	-162	269	-324	31
-83	-109	471	-302	31
-135	185	493	-119	31
-94	598	330	279	31
-66	850	458	136	31
65	785	758	-212	31
183	320	444	-171	31
-15	-460	51	-30	31
-145	-1003	-545	-64	31
2	-989	-1053	39	31
30	-599	-1050	370	31
19	-114	-1095	894	31
113	166	-884	848	31
-83	352	-738	418	31
-42	553	-353	219	31
165	473	-85	-57	31
-307	157	197	-203	31
-283	-155	500	-272	31
97	-362	523	-198	31
-2	-131	558	-82	31
-56	324	301	-67	31
-11	388	273	17	31
97	348	168	69	31
171	729	130	-52	31
162	830	181	-175	31
87	312	96	-156	31
-52	-303	120	-240	31
-482	-1031	207	-199	31
-324	-1233	320	74	31
173	-739	294	285	31
39	-292	204	172	31
99	-9	-15	84	31
11	-52	-134	52	31
46	-141	-124	41	31
138	-60	-84	196	31
-41	29	172	113	31
54	61	319	44	31
28	79	141	-54	31
52	241	-215	-201	31
36	277	-490	-244	31
-44	132	-448	-208	31
-13	128	-289	-108	31
-48	250	-270	-201	31
-4	190	-102	-92	31
141	-217	272	-136	31
136	-597	468	-337	31
53	-393	494	-109	31
60	94	447	16	31
13	677	513	121	31
-136	975	362	196	31
-58	431	19	264	31
54	72	7	14	31
-291	229	-364	-177	31
-347	360	-886	605	31
-180	249	-1076	745	31
-88	-462	-993	61	31
195	-920	-515	-87	31
237	-543	-64	-4	31
324	-141	-111	-310	31
301	-44	1	-540	31
133	-23	498	-235	31
12	63	428	315	31
-402	64	331	380	31
-426	6	373	-119	31
-191	31	289	117	31
69	118	122	144	31
248	165	61	-244	31
206	110	392	19	31
282	105	383	-72	31
174	-1	172	-196	31
61	-162	14	-74	31
-17	-197	-112	16	31
52	-112	159	25	31
130	31	475	2	31
44	12	289	126	31
136	12	-174	76	31
72	22	-585	21	31
58	16	-927	19	31
37	80	-777	3	31
-51	107	-194	-9	31
-47	135	124	-1	31
-116	64	194	26	31
-145	-112	257	-1	31
-170	-184	200	-12	31
-140	-80	44	21	31
-126	11	-131	11	31
-99	31	-51	-33	31
-54	27	236	-31	31
-34	14	271	-16	31
18	29	185	-2	31
34	16	161	-13	31
48	16	-15	-48	31
49	6	-185	-84	31
54	4	-155	-72	31
46	13	94	-54	31
16	-12	402	-49	31
-7	-31	415	46	31
-34	-47	216	197	31
-52	-64	-142	297	31
-72	-131	-543	207	31
-69	-187	-425	64	31
-70	-91	-114	-58	31
-59	56	-239	-262	31
-42	144	-214	-324	31
-11	153	267	-313	31
17	163	600	-511	31
32	281	376	-528	31
76	310	76	154	31
94	62	-247	878	31
92	-137	-341	805	31
59	229	19	130	31
31	493	-375	245	31
-3	264	-596	555	31
-87	-54	-520	27	31
-87	-669	-681	-227	31
-35	-809	184	-353	31
-71	-209	1051	-260	31
-204	207	840	-286	31
-276	375	-24	-101	31
-151	503	-724	160	31
1	417	-943	79	31
24	392	-508	109	31
-19	209	14	-162	31
204	-507	263	-51	31
233	-679	392	26	31
78	-621	295	-6	31
85	-529	378	44	31
7	-143	284	-8	31
417	-37	207	36	31
362	130	192	-15	31
-54	200	116	12	31
-49	71	122	6	31
-23	-263	108	31	31
51	-425	154	20	31
-229	-179	134	-7	31
-198	121	141	-24	31
81	373	131	-44	31
265	319	121	-22	31
281	227	68	-35	31
-36	-92	-3	1	31
-28	-464	-24	-53	31
100	-408	41	-116	31
30	-134	317	-117	31
29	140	450	-81	31
81	250	399	-42	31
22	215	182	-22	31
-27	-20	-228	47	31
-7	-11	-587	212	31
-73	159	-714	332	31
-261	140	-528	171	31
-227	137	-289	68	31
-43	101	-254	121	31
-24	99	-109	14	31
-46	83	139	-200	31
-51	67	206	-219	31
52	65	145	-55	31
18	39	-103	-62	31
27	47	-260	-28	31
115	41	-52	92	31
82	60	239	112	31
136	44	170	61	31
-14	15	-31	42	31
-31	21	-192	55	31
67	3	-252	-33	31
-29	2	-110	-111	31
-87	12	-149	-162	31
-66	11	-99	-149	31
-28	7	241	-111	31
-53	2	287	17	31
-1	-11	168	4	31
20	10	201	-77	31
12	80	134	132	31
9	102	342	305	31
26	55	662	229	31
42	-36	220	-20	31
47	-152	-175	-122	31
48	-145	-186	-74	31
8	-67	-378	-201	31
-2	-37	-503	-301	31
-46	2	-527	203	31
-22	32	-493	698	31
-49	9	-461	371	31
-75	-12	131	81	31
-56	6	1119	97	31
-69	18	1213	-114	31
-31	13	618	-415	31
-26	1	162	-350	31
9	17	-396	-119	31
31	27	-1099	-53	31
47	185	-1349	206	31
74	521	-971	219	31
77	589	-236	97	31
59	214	255	1	31
61	-425	368	-169	31
71	-909	328	21	31
-46	-944	-194	-17	31
-92	-552	-423	-72	31
-155	-63	-67	51	31
-144	172	52	65	31
44	353	217	58	31
-87	586	402	-164	31
-176	702	688	-262	31
76	435	784	-202	31
75	70	423	-299	31
-167	-144	137	-134	31
-217	-454	-98	330	31
112	-538	-12	367	31
299	-409	-41	194	31
42	-219	-339	182	31
-232	-1	-310	-7	31
17	61	-200	-44	31
225	64	26	-6	31
41	26	180	-18	31
189	79	220	32	31
42	106	239	-32	31
88	67	124	-34	31
209	108	89	-26	31
-207	107	54	-9	31
-92	145	24	-7	31
39	107	-25	-41	31
-4	-86	-24	-37	31
131	-101	93	-9	31
136	175	46	9	31
115	430	-80	22	31
26	500	-59	74	31
-61	279	-59	51	31
59	-338	-96	36	31
57	-697	31	-24	31
-37	-349	156	-173	31
-14	25	121	-162	31
0	19	-21	-9	31
14	-121	-130	118	31
-110	-187	-118	119	31
-290	-51	-84	119	31
-352	116	-29	153	31
-125	155	65	70	31
135	183	154	32	31
73	159	107	55	31
64	127	-39	62	31
95	154	-133	2	31
96	187	-174	-106	31
175	217	-164	-136	31
64	154	-88	-29	31
-88	133	-150	-113	31
-87	0	-264	-177	31
-102	-222	-124	-32	31
-54	-351	85	-109	31
62	-737	311	-21	31
26	-618	402	56	31
-22	-81	362	40	31
9	-51	405	66	31
6	34	277	3	31
14	92	-13	-6	31
-86	63	-120	9	31
-49	101	-327	40	31
35	44	-438	56	31
8	58	-192	84	31
73	24	-267	81	31
16	56	-292	76	31
34	71	-279	84	31
57	41	-214	98	31
21	71	12	79	31
32	60	22	21	31
1	76	-4	-7	31
-10	45	-182	-32	31
-53	39	-139	-147	31
-49	42	60	-327	31
-63	36	240	-379	31
-67	52	447	-201	31
-52	41	603	91	31
-76	53	888	190	31
-39	31	576	289	31
17	-1	64	338	31
58	50	-123	71	31
73	274	-499	36	31
73	483	-141	387	31
0	320	643	395	31
19	-97	732	-221	31
54	-534	557	-295	31
-61	-766	-254	-262	31
-36	-546	-1233	-736	31
-84	-157	-1467	-80	31
-162	129	-1571	954	31
-164	426	-1217	787	31
-169	552	-161	-112	31
88	272	658	-245	31
-41	137	805	-129	31
-267	263	735	-281	31
-119	198	576	-32	31
-59	118	117	18	31
47	-113	-455	136	31
49	-225	-643	244	31
179	-129	-374	189	31
292	-382	-269	36	31
288	-298	-41	-260	31
357	165	720	-454	31
76	315	886	-404	31
-82	244	407	-182	31
38	14	211	-118	31
81	-247	-15	-30	31
37	-525	-287	243	31
-17	-653	-138	321	31
-11	-408	185	11	31
18	42	251	-14	31
-13	376	51	-7	31
-61	311	42	-52	31
3	124	136	44	31
44	-114	167	4	31
-9	-393	106	81	31
49	-241	66	73	31
115	129	208	9	31
6	120	180	-87	31
44	87	61	-114	31
4	172	29	-104	31
-154	201	17	-51	31
-17	308	-117	241	31
-71	255	-164	305	31
-106	40	-23	81	31
-36	-251	-61	-67	31
-83	-259	-162	-79	31
2	-65	-128	-89	31
-41	-6	-93	-66	31
14	114	-15	-22	31
53	70	22	42	31
-33	12	-43	68	31
-10	20	-2	61	31
-8	73	11	62	31
-32	193	-5	-4	31
-69	169	23	39	31
-42	147	66	101	31
-17	37	45	71	31
16	-72	-11	-46	31
-11	-81	-61	-205	31
-4	-18	-147	-226	31
29	199	-59	-138	31
14	475	76	-44	31
104	523	56	-64	31
89	114	-11	-79	31
27	-273	-75	-49	31
-84	-537	-107	56	31
-139	-576	-147	160	31
69	-298	-114	246	31
182	-269	-14	228	31
85	-266	61	59	31
44	-135	122	26	31
-102	-16	164	-59	31
-137	148	209	17	31
110	188	228	70	31
-31	144	209	7	31
-191	88	119	48	31
-125	49	21	57	31
-63	54	-24	99	31
-14	77	-224	56	31
-37	154	-291	69	31
31	216	-329	6	31
16	201	-482	-149	31
46	185	-260	-407	31
94	-42	207	-520	31
79	-373	485	-53	31
107	-318	285	172	31
57	-95	44	50	31
26	19	-213	-56	31
107	6	-470	-45	31
46	-27	-280	159	31
-48	9	97	184	31
