File Name: not saved
Channel 1: 'EMG 1', 15166 values, raw ADC, no filters.
Channel 2: 'EMG 2', 15166 values, raw ADC, no filters.
Channel 3: 'EMG 3', 15166 values, raw ADC, no filters.
Channel 4: 'EMG 4', 15166 values, raw ADC, no filters.
Digitals combined (event=16, d=8, c=4, b=2, a=1): 15166 values, .

-2	-85	-1	-46	31
-82	-348	52	2	31
-51	-405	51	-15	31
-108	-115	49	22	31
-83	-11	6	45	31
97	-24	-32	23	31
67	55	-54	-14	31
-149	41	-8	-51	31
65	79	50	-12	31
137	32	62	19	31
34	2	-49	28	31
240	79	-105	-20	31
142	-3	-6	-15	31
106	-87	125	52	31
37	-5	227	146	31
14	95	222	254	31
37	192	67	233	31
-74	297	-100	64	31
-29	257	-132	-1	31
-133	112	-136	-113	31
-58	86	-116	-160	31
-18	225	47	1	31
47	127	72	-21	31
114	-355	177	-25	31
87	-760	568	50	31
95	-726	532	74	31
-24	-236	98	46	31
94	72	-202	5	31
116	27	-608	-19	31
-44	58	-900	-47	31
13	62	-523	-24	31
62	72	-41	-22	31
-152	102	181	-24	31
-141	72	98	-128	31
-43	155	-101	-56	31
-99	327	-235	401	31
11	327	-393	360	31
4	99	-156	-68	31
-149	-71	198	-66	31
-144	-235	228	-40	31
145	-351	268	-74	31
90	-129	388	-49	31
-13	69	542	-22	31
48	42	551	0	31
-21	8	403	-49	31
61	-3	112	16	31
4	15	-299	66	31
81	39	-116	86	31
66	75	167	-23	31
-131	74	-200	-105	31
-103	41	-503	-45	31
-78	46	-492	-57	31
-109	34	-275	9	31
-108	52	-122	-39	31
-65	37	-172	-80	31
-100	25	-68	1	31
34	66	59	-10	31
103	66	168	-24	31
-14	61	159	6	31
169	22	32	191	31
197	-27	39	261	31
48	-71	27	72	31
45	-116	-89	-132	31
46	-82	-105	-299	31
42	61	164	-149	31
-87	194	202	39	31
-29	144	-64	-11	31
174	27	-179	52	31
-49	17	-152	-4	31
-228	68	10	-167	31
-209	172	59	-194	31
-212	185	111	-13	31
-106	-81	220	238	31
-167	-487	141	279	31
6	-576	-6	208	31
242	-144	22	41	31
302	94	97	24	31
316	57	56	88	31
-97	41	129	-52	31
-214	-99	180	-221	31
-71	-16	133	-369	31
34	74	336	-407	31
57	101	687	-160	31
114	167	464	177	31
22	152	-98	256	31
-194	319	-478	249	31
-11	298	-625	219	31
-86	-57	-186	141	31
8	-366	86	144	31
99	-490	-89	157	31
155	-292	-228	140	31
331	-5	-520	6	31
164	35	-528	-104	31
73	1	-185	-62	31
14	52	-17	18	31
99	54	141	27	31
48	67	219	45	31
43	59	170	17	31
57	41	143	-117	31
-122	178	73	-174	31
-47	266	75	-80	31
-142	153	137	-12	31
-137	36	122	-16	31
-96	-144	-23	21	31
-100	-325	-52	11	31
-2	-176	37	85	31
-46	40	32	143	31
54	74	-61	-125	31
38	83	-44	-341	31
-4	60	88	-136	31
23	42	-59	34	31
-31	85	-161	73	31
103	187	56	46	31
63	207	212	-6	31
-57	101	204	82	31
11	34	90	113	31
-164	-183	66	137	31
-116	-434	-62	115	31
70	-352	-258	112	31
-151	-111	-123	50	31
-108	-5	-10	-127	31
66	39	96	-193	31
-67	85	258	-184	31
-72	97	194	-62	31
111	135	84	42	31
61	76	-345	46	31
51	65	-814	52	31
235	211	-545	-15	31
54	230	-36	-146	31
-47	41	96	-206	31
-18	-119	172	-116	31
-96	-175	214	-1	31
-26	-184	150	42	31
-38	-60	12	269	31
32	24	-51	429	31
41	44	220	200	31
-120	-131	252	-16	31
-215	-362	232	-54	31
-121	-185	282	-140	31
-24	14	155	-74	31
-12	72	70	138	31
115	81	202	141	31
24	52	491	-60	31
10	46	182	-150	31
114	14	-215	-272	31
68	52	-280	-319	31
18	72	-157	-2	31
-19	42	79	217	31
48	99	-3	381	31
4	134	-257	394	31
24	-11	-327	223	31
62	-62	-213	44	31
-84	41	-369	-112	31
-129	48	-348	-197	31
-58	36	-264	-278	31
71	29	-252	-92	31
32	135	-6	107	31
6	312	6	95	31
64	279	96	134	31
-14	77	66	92	31
94	-95	47	7	31
202	-231	230	47	31
76	-207	373	15	31
-16	80	546	19	31
-32	205	541	32	31
79	93	525	-38	31
33	-128	297	-110	31
-40	-473	-66	-171	31
-4	-465	-250	-139	31
-135	-78	-388	-117	31
-119	64	-474	-27	31
-32	-9	-341	-12	31
64	9	-141	-3	31
50	9	-189	100	31
28	38	-59	9	31
92	72	83	3	31
-25	61	89	-22	31
34	114	193	7	31
63	169	248	46	31
-44	268	352	-7	31
-77	505	362	-2	31
-4	522	132	-47	31
89	12	-365	-6	31
-160	-343	-608	-76	31
-224	-220	-77	-210	31
33	-74	192	-211	31
-44	-16	-19	68	31
-136	-154	94	424	31
111	-397	-16	335	31
173	-502	-116	142	31
83	-453	-113	42	31
16	-144	-139	-114	31
-5	84	93	-168	31
-19	57	294	-113	31
34	41	414	-75	31
185	10	236	-22	31
17	32	-24	61	31
-107	49	-354	96	31
-97	69	-451	89	31
-130	104	-352	97	31
-189	173	-355	72	31
-168	177	-99	-16	31
-36	7	-142	-205	31
-70	50	-107	-387	31
41	155	96	-126	31
207	147	6	131	31
175	110	-29	139	31
75	77	-90	206	31
118	264	-27	43	31
158	365	239	-31	31
98	212	428	16	31
74	149	407	-2	31
-36	64	481	3	31
-52	-243	450	114	31
-172	-219	387	177	31
-142	-149	518	49	31
149	-492	312	57	31
122	-396	-96	-11	31
-49	-81	-338	-98	31
-56	-23	-475	-262	31
-2	-26	-490	-420	31
83	-44	-309	-287	31
108	47	-315	43	31
56	37	-317	244	31
129	22	-398	76	31
54	52	-398	102	31
4	34	-39	152	31
37	36	92	209	31
-29	39	307	246	31
-8	101	442	-21	31
-99	82	323	-29	31
-109	212	127	4	31
49	400	-91	36	31
2	131	-112	56	31
-132	-177	14	57	31
-32	-131	146	108	31
114	-164	154	37	31
97	-293	79	-45	31
-60	-114	-19	-222	31
-140	49	125	-76	31
-137	6	230	137	31
-100	11	71	-41	31
61	6	22	-224	31
195	11	-226	-312	31
171	29	-398	-188	31
-137	24	-103	-50	31
-67	39	44	-96	31
37	47	362	1	31
-111	44	783	138	31
0	-28	462	108	31
-36	-82	83	71	31
-83	-33	-473	129	31
-89	67	-1100	111	31
-39	214	-574	76	31
-61	256	141	82	31
-101	184	-6	1	31
-1	11	-315	-7	31
-31	-234	-261	76	31
97	-316	-22	41	31
171	-237	200	-74	31
114	-69	225	-149	31
68	39	236	-146	31
-25	27	86	56	31
-42	13	-122	154	31
-76	7	-26	101	31
-206	11	75	227	31
-60	24	-34	260	31
37	86	-94	156	31
-106	214	-60	127	31
-37	345	-83	132	31
-127	352	115	-84	31
-59	335	291	-437	31
111	77	189	-259	31
37	-508	132	-30	31
136	-520	191	-77	31
187	-322	-19	57	31
-21	-356	-167	114	31
-116	-46	-29	142	31
23	99	63	79	31
49	26	95	-21	31
48	26	-8	-151	31
2	-62	46	-334	31
-39	-21	184	-99	31
105	46	84	269	31
-1	66	81	202	31
-59	76	245	23	31
43	42	162	-2	31
-19	56	-52	-127	31
72	42	-376	-185	31
41	43	-616	-119	31
-38	88	-303	-79	31
59	91	-32	-196	31
100	86	22	-103	31
92	88	190	154	31
109	167	465	65	31
-79	247	586	74	31
-339	204	319	142	31
-48	175	117	158	31
139	39	-255	282	31
57	-209	-462	326	31
26	-308	-135	211	31
-26	-387	-189	-120	31
-43	-359	-299	-336	31
-45	-179	98	-237	31
-99	-88	420	-102	31
-187	-130	337	121	31
58	-76	-117	358	31
94	93	-686	174	31
84	94	-518	16	31
244	101	-220	-27	31
107	228	-249	-140	31
67	285	6	-106	31
112	169	-26	49	31
-18	17	94	154	31
-107	-88	162	-81	31
22	-219	21	-202	31
-99	-162	316	-106	31
-163	36	375	-29	31
-59	58	287	101	31
-146	24	130	184	31
59	73	-11	114	31
91	107	41	0	31
-27	142	70	-52	31
-59	117	210	-122	31
-59	156	345	-86	31
7	297	197	-26	31
-54	200	-177	19	31
41	-97	-317	33	31
97	-319	-242	29	31
206	-457	-189	135	31
312	-365	-131	87	31
245	-57	15	-206	31
37	-56	79	-275	31
-189	-96	-42	-254	31
-178	10	-79	-402	31
-115	-21	-20	-204	31
-64	6	98	64	31
29	26	169	204	31
225	116	335	212	31
114	168	443	96	31
-74	29	222	99	31
-74	137	-204	-17	31
-37	347	-615	-38	31
140	225	-580	9	31
137	-4	-285	51	31
34	-111	32	105	31
-6	-265	432	230	31
-95	-272	561	260	31
-77	-48	381	19	31
49	12	121	3	31
-2	-5	-202	-34	31
-107	45	-515	-50	31
-138	37	-400	94	31
-121	61	109	148	31
-37	84	286	-26	31
-28	32	258	-202	31
12	66	148	8	31
37	81	-46	17	31
54	-79	-315	-2	31
111	-133	-657	114	31
34	-14	-385	139	31
-12	-21	-239	244	31
-2	-138	-347	139	31
39	-112	-26	-104	31
60	-17	50	-312	31
-22	35	188	-299	31
-166	107	420	-162	31
-114	175	482	5	31
-6	175	435	107	31
-42	108	192	166	31
27	16	16	-38	31
27	-138	-78	-375	31
142	-141	-26	-228	31
19	43	-138	-94	31
-172	35	-92	-76	31
81	-67	97	-95	31
50	-41	-7	-2	31
44	76	-37	364	31
240	134	-24	327	31
-57	99	119	-92	31
-199	93	266	-104	31
-64	50	249	-101	31
-275	80	54	-157	31
28	300	-29	19	31
145	425	-2	66	31
-174	182	-341	224	31
2	-195	-300	226	31
74	-525	229	-54	31
111	-669	420	-152	31
-97	-293	232	-142	31
-97	81	-147	5	31
205	324	-557	133	31
119	697	-693	105	31
16	518	-316	114	31
-33	145	119	102	31
7	-167	286	107	31
-54	-723	430	27	31
11	-827	368	10	31
134	-482	191	52	31
37	-219	-51	16	31
-36	-101	-272	-9	31
-48	-3	-321	11	31
61	71	-264	93	31
22	94	58	-168	31
-111	112	363	-252	31
-101	116	383	-29	31
-36	169	137	-81	31
52	247	-116	-81	31
129	195	-4	-4	31
29	14	177	13	31
36	-56	36	19	31
109	69	4	47	31
8	147	-20	54	31
69	125	-99	47	31
-16	109	119	50	31
-108	24	348	5	31
-101	-31	462	122	31
-100	4	175	191	31
29	24	-457	-67	31
-50	7	-964	-121	31
-15	-14	-627	-123	31
46	-20	-136	-224	31
29	-48	-289	16	31
89	-62	-83	244	31
2	-9	146	300	31
10	31	224	142	31
-9	37	477	-61	31
-62	74	697	-51	31
-20	14	526	-22	31
-83	-34	152	32	31
32	37	59	83	31
12	122	-248	-151	31
-126	182	-415	-270	31
112	134	-297	128	31
-7	80	-452	206	31
-62	-15	-427	36	31
49	-113	-143	22	31
-92	-109	50	146	31
71	-83	120	125	31
102	-60	59	-192	31
-46	-56	214	-114	31
-98	-12	331	-89	31
-19	7	196	-162	31
45	4	119	-1	31
131	47	-192	94	31
96	98	-279	-40	31
-143	243	77	-181	31
-59	367	27	-46	31
-19	189	-150	96	31
24	-157	-145	164	31
54	-428	-144	68	31
47	-370	24	-59	31
26	20	214	-91	31
-137	-30	265	-21	31
-58	-230	254	41	31
14	-75	44	-58	31
-129	-32	-53	-132	31
-46	-13	-6	-35	31
238	82	-67	320	31
67	338	27	405	31
85	472	158	124	31
314	260	266	-64	31
164	24	274	-91	31
-77	-324	209	-203	31
-342	-495	169	-184	31
-251	-293	-159	49	31
-27	-47	-661	-107	31
69	106	-794	-304	31
149	34	-196	-265	31
155	-231	271	-200	31
4	-310	262	-42	31
-99	-111	142	234	31
-23	56	-183	429	31
22	82	-185	573	31
120	38	47	543	31
92	-9	108	146	31
84	41	76	-41	31
110	80	131	-63	31
24	66	230	-63	31
59	87	111	2	31
49	84	-8	-115	31
-102	75	106	-202	31
-137	91	317	-187	31
-154	63	594	19	31
-146	59	624	56	31
8	129	2	-69	31
-38	48	-590	-84	31
-172	-94	-892	-174	31
-69	-39	-907	-262	31
44	34	-203	-119	31
7	57	172	154	31
55	39	11	157	31
107	16	20	-6	31
57	74	-54	-125	31
92	141	-81	-70	31
89	174	31	-102	31
-12	79	91	-119	31
-130	-79	31	29	31
-117	-61	128	125	31
-64	155	202	111	31
-120	207	-21	78	31
-69	58	-193	58	31
-38	-30	-245	84	31
-61	-238	-154	326	31
27	-441	35	226	31
111	-333	225	7	31
69	1	355	-156	31
40	319	393	-310	31
25	343	350	-75	31
21	67	291	-37	31
60	-159	301	8	31
99	-284	322	185	31
117	-266	110	167	31
31	-24	-177	34	31
-6	7	-210	2	31
-34	-39	-289	73	31
-71	-15	-300	-76	31
-161	-46	-229	-84	31
-110	19	-133	-27	31
19	69	47	-39	31
-87	52	161	-81	31
-91	-23	369	-173	31
-23	-80	411	-204	31
16	-52	260	-177	31
62	26	-47	-2	31
146	56	-687	168	31
141	-15	-837	272	31
59	53	-522	279	31
44	280	-262	144	31
43	379	151	14	31
73	298	216	-28	31
-63	317	107	-60	31
-89	393	1	-67	31
7	179	-194	-32	31
-24	-247	-141	16	31
-29	-653	-55	134	31
-32	-772	129	216	31
-6	-458	126	153	31
49	-123	-43	-11	31
40	-61	91	-118	31
59	6	250	-187	31
47	51	205	-63	31
69	37	205	99	31
120	94	303	84	31
97	127	420	82	31
104	207	532	-92	31
-17	216	438	-225	31
-41	149	125	-99	31
-49	88	-453	135	31
-131	-61	-906	141	31
-83	-172	-565	-207	31
-97	-170	-123	-384	31
-162	-62	-15	-173	31
-82	10	85	47	31
30	-1	28	-42	31
-96	34	-63	-154	31
-10	71	-207	-149	31
179	97	-60	-13	31
121	110	212	67	31
4	54	12	142	31
56	13	-209	171	31
75	87	-234	73	31
-33	166	11	91	31
31	109	178	-11	31
-43	110	133	-41	31
-80	278	120	71	31
-16	220	27	219	31
23	-30	22	347	31
2	-230	14	375	31
-77	-398	84	331	31
-76	-227	177	192	31
-53	-44	160	246	31
80	-54	134	76	31
24	44	111	-298	31
14	43	167	-327	31
124	0	107	-258	31
54	-56	189	-124	31
75	-67	421	-126	31
55	13	207	-189	31
59	7	-144	-20	31
92	31	-419	66	31
-22	42	-779	-9	31
-92	14	-553	-7	31
-113	-23	49	28	31
-29	-77	170	-24	31
27	166	294	-86	31
17	618	348	-126	31
27	453	146	-194	31
-81	-66	-179	-229	31
69	-94	-489	21	31
66	-147	-225	355	31
-124	-310	-37	303	31
32	-173	-151	7	31
48	-20	-91	-9	31
131	99	-72	55	31
74	159	-92	-19	31
-159	2	7	-41	31
-40	-260	101	-88	31
58	-509	99	-99	31
-52	-490	119	-103	31
-243	-223	146	64	31
-149	-79	132	120	31
2	32	114	3	31
-78	134	125	69	31
-14	77	169	8	31
69	55	254	-31	31
74	49	228	-44	31
94	-21	89	-101	31
59	-45	-26	-61	31
51	-4	-175	33	31
110	56	-81	96	31
125	104	327	102	31
73	137	497	121	31
-61	142	235	68	31
-144	194	-253	12	31
-57	335	-793	53	31
-63	398	-591	141	31
-93	218	64	122	31
-60	-17	205	124	31
-19	-180	94	84	31
69	-226	-129	31	31
-90	-59	-162	68	31
-75	-84	-64	51	31
117	-159	-217	-133	31
52	-22	-235	-272	31
101	20	-29	-176	31
130	12	-24	-353	31
109	-46	-53	-395	31
-51	-56	156	-132	31
-84	-14	217	206	31
46	12	77	434	31
-49	40	51	107	31
-46	64	257	-93	31
-49	157	400	-51	31
-71	-17	323	-61	31
-114	-172	144	22	31
-44	169	-61	73	31
-59	512	21	173	31
-101	405	118	200	31
100	66	-41	94	31
106	-253	-261	43	31
78	-474	-415	53	31
-19	-414	-90	39	31
81	-192	68	-124	31
184	24	-217	-209	31
-20	208	-84	-300	31
-7	130	190	-419	31
51	27	172	-148	31
-19	132	-9	5	31
-171	190	-102	111	31
-64	139	-266	498	31
5	-93	-295	356	31
-87	-415	-11	135	31
6	-468	77	120	31
-40	-220	75	-26	31
-4	-45	96	-22	31
36	-25	10	-37	31
10	116	-12	-30	31
102	217	45	2	31
111	150	80	24	31
56	74	74	67	31
27	4	53	28	31
44	-76	27	-6	31
-17	-109	9	-7	31
-54	-16	44	-119	31
-2	73	137	-248	31
-7	51	332	-109	31
-13	63	535	-19	31
29	119	586	-40	31
-1	260	455	33	31
-50	317	74	92	31
15	158	-548	114	31
24	33	-1125	77	31
66	-327	-931	65	31
113	-551	97	23	31
39	-151	273	3	31
78	99	-56	14	31
30	79	-259	15	31
-67	74	-618	19	31
-9	86	-216	-2	31
-12	154	24	-6	31
-72	47	56	-13	31
-74	-20	284	-1	31
7	54	420	-15	31
37	69	491	16	31
-94	150	203	131	31
-182	99	-10	210	31
-12	-36	-186	14	31
9	-67	-330	-263	31
-6	-246	-255	-234	31
71	-336	7	-143	31
23	-154	322	-90	31
64	76	300	-70	31
25	315	155	-53	31
26	276	81	-39	31
22	-126	49	-52	31
-4	-387	118	-33	31
-14	-390	170	-16	31
-86	-187	175	59	31
-64	67	11	81	31
-131	111	-159	84	31
-68	177	164	77	31
17	210	351	57	31
-69	147	20	131	31
-16	162	-200	151	31
45	122	-392	116	31
79	189	-530	78	31
43	325	-357	12	31
71	245	25	-30	31
159	11	200	-34	31
97	-180	147	-13	31
74	-341	126	36	31
-51	-327	-26	142	31
-67	-171	-92	163	31
22	-143	-61	-56	31
-9	-4	21	-305	31
-31	54	50	-232	31
-108	22	-14	145	31
-92	65	-5	183	31
-62	76	-118	-16	31
-17	138	-173	-2	31
49	200	-56	-77	31
51	326	139	-42	31
77	237	204	28	31
91	71	175	-24	31
127	113	219	-51	31
117	34	216	-68	31
71	-180	350	-37	31
39	-453	655	-21	31
31	-553	838	8	31
77	-405	438	-12	31
-21	-188	-207	-11	31
-231	-13	-844	111	31
-117	19	-1493	186	31
-19	34	-1145	104	31
-42	44	-302	28	31
-1	57	-17	0	31
-119	127	107	0	31
-92	187	207	17	31
25	180	154	25	31
46	121	27	54	31
76	41	-30	52	31
114	-80	107	56	31
47	-149	205	-53	31
16	-129	228	-256	31
109	39	303	-100	31
62	204	340	160	31
3	74	154	-52	31
-44	-89	-93	-117	31
-71	-36	-224	-41	31
-56	114	-258	-99	31
-75	140	-190	-66	31
-38	89	-96	-140	31
-44	58	102	-74	31
-53	-21	269	-26	31
-5	-42	399	11	31
27	-24	400	127	31
-3	-8	330	91	31
8	11	197	89	31
37	-4	-177	111	31
37	-7	-305	76	31
37	-19	-316	67	31
6	-14	-305	124	31
28	15	-145	38	31
-15	131	-11	-131	31
-38	320	164	-100	31
-16	255	176	128	31
-48	13	205	254	31
-36	-180	147	59	31
-29	-365	-119	-15	31
-6	-257	-220	12	31
-21	-30	-229	-17	31
-27	-4	-134	52	31
114	91	-209	35	31
127	29	-211	29	31
-21	-84	-52	55	31
3	100	-27	119	31
38	364	-13	-68	31
-19	328	32	-228	31
7	-105	280	-53	31
44	-246	338	-36	31
7	-183	264	-57	31
-97	-298	442	-240	31
-115	-196	602	-301	31
-66	-17	160	-6	31
-102	-11	-557	77	31
-107	12	-833	-7	31
-53	30	-719	7	31
22	40	-72	30	31
72	129	353	100	31
110	290	254	216	31
190	348	172	250	31
183	134	18	186	31
11	51	78	67	31
-54	-26	158	-26	31
107	-264	-14	-112	31
110	-183	-93	-161	31
3	-67	-99	-202	31
-56	-169	-174	-198	31
-81	-270	-69	-194	31
-52	-201	128	-102	31
-64	12	81	167	31
-36	44	-19	242	31
-9	-21	-127	119	31
-6	-11	-237	48	31
-24	-17	-179	11	31
7	185	59	-69	31
44	445	237	-71	31
57	374	194	33	31
91	38	23	96	31
36	-368	-149	109	31
11	-357	-232	37	31
47	-17	-169	-52	31
-24	72	-39	-83	31
-31	200	39	-26	31
15	342	63	56	31
-27	260	62	-40	31
52	245	155	-138	31
-116	11	248	-23	31
-141	-337	367	111	31
77	-375	367	19	31
-39	-228	160	-16	31
21	-25	99	48	31
71	204	171	82	31
44	185	209	141	31
86	-137	86	34	31
19	-112	-31	-71	31
47	-81	-146	-91	31
63	-265	-265	-101	31
-5	-56	-238	-114	31
-24	79	-289	-73	31
-3	33	-530	160	31
-79	199	-929	250	31
-126	258	-523	17	31
-83	-3	360	-154	31
-12	-298	591	-89	31
-19	-304	685	49	31
-39	-90	608	181	31
17	77	-71	257	31
14	312	-954	372	31
68	428	-615	511	31
69	228	508	338	31
65	154	804	-38	31
119	59	855	-481	31
64	-170	704	-695	31
48	-287	37	-334	31
137	-216	-565	-39	31
-51	79	-564	-136	31
-174	283	-473	114	31
14	122	-433	166	31
-121	-126	169	-192	31
-108	-298	240	-102	31
85	-338	124	-231	31
41	-96	265	-244	31
44	-19	294	-18	31
102	-57	523	215	31
69	-16	575	648	31
26	-60	312	479	31
39	-29	-64	202	31
-2	-34	-488	174	31
-28	-13	-1720	229	31
-31	-14	-2538	-250	31
-47	-120	-1144	-952	31
-85	-81	405	-403	31
-119	21	1162	465	31
-95	80	1731	567	31
-74	54	1545	-14	31
-89	73	933	-578	31
-104	257	175	-548	31
-74	393	98	-364	31
-19	362	244	-265	31
36	315	-85	-118	31
88	225	-343	24	31
114	36	-979	418	31
61	-94	-1899	968	31
52	-122	-1608	753	31
130	-5	-63	280	31
119	119	59	53	31
49	101	-129	-597	31
-6	39	944	-895	31
-46	16	535	-547	31
-58	-103	-1000	227	31
-37	-219	-558	805	31
-22	1	1108	499	31
-21	148	1793	-19	31
-12	-66	2484	-374	31
-24	-261	1829	-275	31
-59	-323	-477	23	31
-80	-135	-2171	341	31
-23	241	-2831	299	31
31	276	-2028	-483	31
37	84	-407	-622	31
76	-67	1493	-209	31
57	-292	1919	-284	31
53	-234	1513	-57	31
96	-91	1170	265	31
14	-184	-69	53	31
-39	-127	-354	187	31
-49	42	-704	549	31
-69	302	-1436	864	31
-43	470	-1468	907	31
-36	262	-1055	227	31
-61	74	-104	-307	31
-116	-56	674	-765	31
-121	-189	921	-740	31
-74	-61	547	-92	31
-15	22	102	-52	31
37	-127	31	-306	31
54	-152	60	-189	31
78	-84	-310	114	31
97	-16	-1075	181	31
116	22	-673	-9	31
122	-33	1376	-195	31
46	-27	2454	-282	31
-17	-16	1544	-34	31
69	-17	501	501	31
109	4	91	421	31
21	167	3	290	31
-37	417	-300	367	31
-102	275	-1027	71	31
-101	-84	-1066	-575	31
-76	-353	-152	-399	31
-86	-593	47	-30	31
-21	-451	-1138	171	31
55	-36	-2278	1215	31
126	173	-1596	560	31
179	238	120	-883	31
195	219	1597	-963	31
181	156	1996	-735	31
172	85	520	-202	31
87	34	-950	338	31
-64	62	-473	564	31
-147	64	467	803	31
-174	84	-137	932	31
-154	180	445	391	31
-98	165	1802	-396	31
29	-56	536	-560	31
106	-267	-212	-443	31
59	-409	-361	-790	31
1	-453	-551	-1078	31
-21	-164	283	-1226	31
68	144	177	-1734	31
129	142	-103	-598	31
83	157	-523	1076	31
20	237	-171	1419	31
-70	214	886	1472	31
-55	59	495	1712	31
-18	-8	8	1296	31
-5	30	-1051	-1191	31
-7	-33	-1095	-1848	31
-90	-13	538	-77	31
-84	31	199	1248	31
-24	39	-1195	2239	31
-66	55	-1079	1402	31
-152	58	966	120	31
-130	44	1446	-280	31
61	-21	-389	101	31
267	-56	-946	-459	31
232	-52	-876	-1168	31
133	-31	-443	-1018	31
85	-32	308	-1066	31
-103	-29	540	-576	31
-246	26	547	-442	31
-229	189	-195	122	31
-56	314	-684	64	31
124	179	-415	-425	31
83	47	-34	-11	31
-55	39	-636	-24	31
-46	-84	-1040	428	31
-38	-151	-95	497	31
-198	-15	922	-242	31
-174	-195	1990	-223	31
23	-495	2544	219	31
191	-413	2488	592	31
193	-168	810	767	31
121	6	-1402	858	31
163	-2	-2235	768	31
27	42	-1902	647	31
-64	58	-997	149	31
-13	26	183	-650	31
-51	77	1162	-1425	31
-201	74	1208	-1244	31
-267	105	698	-365	31
-232	64	-465	-412	31
-237	31	-106	-457	31
-81	51	225	-101	31
44	26	-234	485	31
112	37	-581	317	31
153	47	-338	231	31
124	212	631	-117	31
195	455	53	-1069	31
244	411	184	-775	31
244	63	595	-61	31
202	-293	1053	848	31
175	-613	1318	1196	31
232	-573	-362	509	31
117	-61	-1362	437	31
-162	60	-1000	763	31
-323	59	364	449	31
-384	122	565	28	31
-440	27	-1289	-349	31
-356	126	-1571	-249	31
-61	81	-811	-369	31
247	19	163	-604	31
358	13	538	-442	31
376	-10	-157	-311	31
341	79	114	21	31
210	122	266	-41	31
104	168	290	-102	31
46	109	122	-161	31
30	-59	-41	317	31
-29	-239	306	705	31
-144	-291	548	489	31
-136	-115	438	461	31
-71	46	-124	-147	31
-120	54	-169	-159	31
-114	49	-106	182	31
-91	36	-157	-132	31
-103	57	-476	-149	31
-79	151	-1153	-166	31
-108	136	-1205	-451	31
-129	81	-261	-753	31
-124	54	111	-618	31
-107	45	523	320	31
-29	66	987	1336	31
72	11	533	1462	31
94	-54	835	853	31
130	-63	738	226	31
190	-63	575	-116	31
47	-25	-71	-171	31
-115	-18	-401	-280	31
-62	-8	385	-349	31
-57	96	-281	-676	31
-72	84	-360	-620	31
-76	7	426	-145	31
-121	16	566	-660	31
-86	4	353	-843	31
-67	-16	217	-637	31
11	-46	-506	-668	31
83	-50	-1859	-427	31
104	-27	-954	-162	31
53	-39	351	611	31
-18	-14	914	1673	31
44	8	666	2187	31
43	24	-663	1393	31
-20	57	-901	370	31
-44	-7	-758	-477	31
-72	-50	-205	-1855	31
-103	-15	292	-1468	31
-144	-13	317	-287	31
-158	43	147	-20	31
-186	88	455	457	31
-139	22	565	329	31
138	-67	-279	84	31
253	-177	-540	409	31
115	-261	41	231	31
70	-217	393	-194	31
55	-38	222	-169	31
70	150	669	-54	31
55	123	447	238	31
46	37	232	333	31
48	51	161	91	31
27	34	-419	-96	31
44	53	-259	-195	31
-7	37	-64	284	31
-17	11	-305	226	31
-26	22	-1095	-407	31
-96	7	-629	-17	31
-102	19	982	119	31
-10	7	1202	-424	31
6	-8	662	-518	31
-86	-24	74	-809	31
-54	-17	-551	-631	31
-7	45	-314	489	31
56	57	-778	1206	31
160	-15	-1336	413	31
188	-7	-365	-201	31
96	172	778	384	31
-29	187	826	20	31
26	-103	-67	-92	31
-54	-244	-501	-94	31
-149	-16	-170	-329	31
-102	297	538	-101	31
-107	340	643	-71	31
-30	113	331	463	31
-44	-73	267	442	31
-52	-237	244	-69	31
4	-360	251	-122	31
34	-202	61	-77	31
145	-59	-175	47	31
149	-84	-458	204	31
77	5	-498	226	31
97	54	-146	166	31
84	109	-192	122	31
62	242	-328	-41	31
12	61	156	-571	31
-60	-242	175	-735	31
8	-180	96	-161	31
-32	89	284	130	31
-61	174	52	165	31
16	291	-132	-161	31
-92	345	-241	-349	31
-88	87	66	-340	31
-21	-141	462	-229	31
-31	-356	500	292	31
60	-360	220	428	31
86	-86	-250	718	31
85	-24	-578	372	31
52	-28	-614	2	31
32	25	-187	85	31
-17	27	-27	-122	31
-56	81	46	302	31
31	92	372	84	31
-27	74	703	-547	31
-79	89	858	-735	31
-153	36	303	-454	31
-169	-50	-530	550	31
-55	-67	-814	959	31
-62	-24	-87	101	31
19	-2	1336	-186	31
96	4	2177	234	31
76	-1	1303	245	31
-2	8	-815	427	31
-181	-8	-2483	52	31
-182	-25	-2472	-34	31
-137	7	-1710	82	31
-142	12	-967	-546	31
-66	35	-4	-663	31
-126	70	338	-129	31
-114	155	241	99	31
12	194	86	76	31
-19	102	85	-9	31
-159	47	249	-384	31
-224	-66	455	-403	31
38	-174	603	-396	31
126	-167	405	-407	31
5	-106	411	-101	31
97	-26	408	243	31
183	-6	535	420	31
261	9	956	281	31
204	17	585	224	31
181	9	67	156	31
182	35	-178	60	31
82	111	-677	105	31
136	224	-737	109	31
127	170	-326	-8	31
54	31	448	-50	31
54	-65	703	123	31
111	-235	131	224	31
97	-264	-324	114	31
-42	-98	-732	-94	31
-2	-45	-615	-127	31
46	-14	-366	-99	31
36	284	-477	-272	31
134	576	-156	-315	31
189	442	242	175	31
41	14	342	347	31
-13	-358	311	44	31
172	-440	353	-46	31
74	-219	192	-192	31
61	-181	-86	-102	31
106	-231	-99	218	31
18	-62	39	342	31
22	-40	137	171	31
-76	-93	226	39	31
-78	-16	227	33	31
-41	153	-101	-114	31
27	184	-127	-206	31
-2	159	131	-177	31
-179	132	279	21	31
-106	-49	108	203	31
109	33	-102	282	31
80	166	-185	112	31
-109	104	-337	-84	31
109	247	-108	-31	31
132	305	158	-31	31
-13	225	209	-46	31
188	69	138	-156	31
54	-324	92	-122	31
-8	-628	149	-2	31
-58	-579	113	-81	31
-14	-226	27	-87	31
26	-7	-133	-46	31
-219	-12	-184	16	31
-154	116	-206	50	31
-121	237	-174	7	31
-57	170	30	29	31
49	51	33	35	31
-23	-71	-127	14	31
-92	-224	-16	-42	31
146	-184	91	-116	31
216	16	94	-70	31
107	87	44	-16	31
229	140	-136	-50	31
-54	204	-211	-44	31
-5	211	-282	7	31
74	300	-320	4	31
-16	409	-208	-94	31
54	538	112	-84	31
-56	691	428	299	31
85	697	884	460	31
47	435	1302	222	31
36	-515	1275	176	31
-131	-1512	834	140	31
-303	-1107	-328	-80	31
94	-190	-1059	-250	31
106	-18	-644	-149	31
-97	-31	-566	-112	31
-44	-57	-1114	-350	31
62	13	-808	-212	31
64	65	-254	169	31
1	-265	-238	118	31
-91	-453	-71	-72	31
-190	-272	210	44	31
-89	46	214	310	31
-81	140	-158	404	31
71	112	-147	272	31
27	237	-127	67	31
-131	310	-363	-211	31
91	285	36	-223	31
5	262	638	-94	31
-116	346	669	-212	31
-64	378	368	-115	31
-1	173	-151	124	31
-24	-34	-753	224	31
16	-152	-553	154	31
171	-318	22	2	31
164	-342	348	2	31
-61	-107	775	20	31
-130	-18	844	2	31
43	-51	327	-52	31
-109	43	-74	-250	31
-114	124	-225	-324	31
-8	184	-302	-67	31
2	102	-16	-15	31
57	-60	144	-112	31
85	-192	96	-105	31
12	-342	111	-35	31
-147	-210	70	76	31
49	-21	146	-16	31
81	-36	200	122	31
9	34	253	325	31
44	98	115	136	31
69	122	-102	46	31
179	290	-151	233	31
-86	360	-295	96	31
-89	235	-304	-263	31
-108	141	-78	-205	31
-354	-25	250	-247	31
-64	-263	302	-107	31
7	-203	-286	239	31
-36	142	-447	203	31
-59	480	-246	269	31
-37	672	-452	189	31
151	379	-394	126	31
167	-306	-97	79	31
61	-876	197	4	31
-119	-844	294	-136	31
105	-224	363	-89	31
208	-121	519	6	31
59	-248	571	-13	31
41	84	460	-11	31
-91	468	-22	-35	31
-86	794	-531	7	31
-10	710	-850	-211	31
-72	184	-719	-102	31
-145	-347	-420	-173	31
-47	-387	-351	-274	31
89	-181	14	-178	31
-56	-139	374	98	31
-300	-168	603	471	31
-77	-202	913	350	31
134	-94	718	109	31
-83	26	243	-239	31
140	127	222	-221	31
177	98	-102	-76	31
34	94	-696	49	31
210	262	-603	232	31
-98	247	-391	267	31
-184	205	-571	103	31
-38	165	-528	117	31
-119	-131	-44	231	31
-69	-171	565	96	31
-126	-320	1009	184	31
-114	-803	938	53	31
91	-461	659	-82	31
32	-127	144	-159	31
1	-200	-393	-181	31
74	-172	-443	-69	31
-26	-270	-485	-31	31
6	-2	-537	-30	31
126	170	-343	-226	31
101	114	-112	-362	31
-93	117	320	-390	31
-105	61	686	-189	31
96	222	117	-70	31
-40	429	-499	87	31
-317	413	-639	221	31
-106	154	-761	4	31
-23	-54	-506	20	31
-98	-230	87	12	31
64	-278	398	9	31
-14	-6	186	38	31
17	95	279	25	31
56	92	352	67	31
72	255	67	40	31
24	288	12	56	31
-86	185	142	103	31
159	175	36	94	31
136	122	-184	-79	31
23	11	-3	-83	31
171	21	49	94	31
113	305	-56	147	31
-218	250	205	147	31
-97	-452	573	166	31
158	-699	480	126	31
-222	-511	170	-34	31
-198	-176	175	-179	31
53	334	-176	-227	31
122	543	-398	-61	31
125	347	-62	-24	31
2	-90	183	-113	31
29	-400	383	19	31
101	-438	184	31	31
165	-102	9	-36	31
151	16	-12	-156	31
177	-41	-308	-191	31
119	278	-95	-181	31
-114	190	267	-103	31
-54	202	152	206	31
106	732	214	237	31
-64	739	137	165	31
-97	355	120	125	31
-59	417	382	5	31
-61	704	428	104	31
-50	376	69	171	31
31	17	-620	21	31
74	-328	-948	-17	31
-69	-1218	-1341	-22	31
70	-1397	-1408	12	31
197	-971	-622	103	31
57	-741	-50	16	31
-218	-561	292	-131	31
-46	-329	548	-198	31
211	247	528	-139	31
250	632	535	-142	31
-6	547	433	-182	31
-531	377	406	-151	31
-92	325	289	-90	31
144	175	-133	490	31
6	-205	-367	1087	31
32	-310	-558	826	31
19	-382	-272	284	31
51	-370	270	-143	31
-152	-194	338	-390	31
42	-87	334	-319	31
168	160	319	-260	31
158	129	148	-335	31
76	-9	85	-382	31
-77	147	259	-255	31
205	318	623	-115	31
73	195	581	114	31
-179	-87	-251	249	31
-77	-142	-750	50	31
-127	45	-929	67	31
-153	405	-719	151	31
-240	558	204	126	31
-89	363	553	313	31
1	5	328	157	31
-194	-332	228	-91	31
-19	-486	-169	-156	31
180	-421	-467	-368	31
127	-49	-374	-276	31
-361	131	-200	-291	31
-249	80	45	-245	31
95	239	-189	225	31
-65	234	7	349	31
437	136	442	-49	31
417	243	330	-299	31
-99	150	260	-110	31
73	-236	77	92	31
55	-525	-183	167	31
-90	-616	-613	-5	31
205	-388	-872	-107	31
-97	41	-650	240	31
-563	184	-241	134	31
-168	227	254	-198	31
82	174	467	-39	31
112	29	422	59	31
124	45	472	279	31
126	222	687	460	31
169	616	691	189	31
267	666	620	18	31
350	549	593	-52	31
-128	439	349	-112	31
-326	-145	-244	39	31
38	-382	-1088	-57	31
98	-405	-1315	-278	31
-78	-79	-929	-22	31
-166	1068	-199	185	31
-47	1273	135	97	31
-2	446	254	86	31
-46	-537	288	35	31
13	-1310	-50	-217	31
-57	-1081	-34	-247	31
-22	-635	-111	-11	31
102	-287	-174	6	31
212	82	69	-98	31
190	-40	518	-229	31
-4	-49	690	-143	31
61	-14	593	67	31
298	-129	736	200	31
450	-246	551	127	31
-2	-374	126	13	31
-468	-145	-246	71	31
-134	91	-752	58	31
32	175	-953	138	31
-256	172	-588	26	31
-162	155	-318	-76	31
121	142	-196	-127	31
388	39	45	-285	31
352	26	245	-254	31
-134	-40	437	-89	31
-81	-67	525	238	31
245	39	628	295	31
465	170	638	124	31
50	149	350	141	31
-372	3	-84	92	31
-61	-7	-473	-46	31
-107	-159	-401	-84	31
1	-177	51	-98	31
35	109	395	-77	31
-164	27	376	-68	31
-145	-176	39	-73	31
-141	2	-693	-148	31
0	164	-1060	-430	31
-38	112	-650	-711	31
121	137	199	-219	31
274	84	879	811	31
-220	-69	693	693	31
-388	-74	403	103	31
25	4	-294	364	31
-5	145	-1257	289	31
6	266	-1221	86	31
87	337	-548	464	31
-86	285	-55	476	31
-37	147	6	-28	31
11	51	-68	-355	31
170	-49	87	-265	31
-61	-98	581	-282	31
-257	-134	663	-209	31
64	-90	488	-101	31
-9	-52	687	-229	31
-47	-79	661	-14	31
-74	-31	394	134	31
-300	-19	-41	-40	31
-149	-27	-463	-57	31
-95	-30	-661	120	31
-4	-18	-586	107	31
101	-36	-404	69	31
-20	-87	-27	136	31
151	-69	249	7	31
138	-49	6	-225	31
81	-2	217	-420	31
-44	54	310	-482	31
-302	28	165	-99	31
-105	-5	53	449	31
166	6	-139	299	31
171	78	66	-13	31
-38	247	-6	153	31
60	335	-50	232	31
202	132	-5	72	31
269	-159	19	-29	31
289	-408	53	-71	31
42	-479	14	-102	31
-101	-240	347	-150	31
-99	-140	526	-249	31
57	-94	419	-182	31
-26	103	-54	-68	31
-71	144	-359	-19	31
-48	9	-68	113	31
-58	-104	167	123	31
2	57	155	153	31
-8	149	-146	180	31
-12	83	-758	121	31
-134	84	-959	161	31
106	140	-438	127	31
83	159	-19	37	31
-214	-92	284	-177	31
55	-187	497	-413	31
133	24	515	-558	31
29	205	297	-121	31
66	139	-430	670	31
161	-4	-835	578	31
207	-64	-639	112	31
-47	-247	-239	91	31
-195	-137	119	335	31
-185	25	397	337	31
-109	-100	553	75	31
16	-70	432	-135	31
81	24	325	-495	31
55	165	86	-439	31
-137	178	-170	-19	31
-179	43	-116	-24	31
-2	63	87	-156	31
89	156	317	-63	31
-95	288	385	-24	31
-74	218	202	-82	31
139	62	-42	-145	31
249	-132	-240	-136	31
138	-376	-255	11	31
-17	-234	216	80	31
68	-136	691	84	31
-92	-329	543	-19	31
-50	-252	115	22	31
172	16	-370	204	31
155	145	-532	161	31
-80	143	-42	53	31
-232	92	322	-178	31
-138	279	-209	-35	31
-163	480	-1090	329	31
97	390	-1343	14	31
172	200	-987	-67	31
1	-113	-328	32	31
31	-430	465	-29	31
110	-465	690	276	31
142	-122	456	122	31
-9	226	258	-147	31
-27	184	35	-182	31
-183	42	10	-337	31
-260	-162	-22	-8	31
67	-252	170	287	31
-15	-24	533	-42	31
-234	-91	518	-187	31
71	-177	401	-99	31
141	-106	367	-350	31
-39	-67	350	-457	31
86	67	589	-392	31
56	-36	698	-29	31
-9	-32	-193	794	31
-36	96	-1140	903	31
105	147	-1412	317	31
330	265	-1246	-43	31
51	281	-485	-193	31
34	144	136	-85	31
101	-49	220	197	31
-160	-109	354	192	31
-82	-91	365	178	31
64	2	343	91	31
-299	9	433	-18	31
-214	-38	285	-66	31
219	1	77	-188	31
-12	2	-47	-127	31
161	21	-94	41	31
151	17	-175	101	31
11	44	-278	-39	31
136	63	-297	54	31
-54	76	-128	-17	31
11	87	-52	-234	31
-155	25	-7	-75	31
-279	-117	191	-75	31
-97	-262	210	-185	31
-7	-147	78	-194	31
9	74	72	-90	31
-19	200	112	-47	31
-34	191	156	-51	31
-17	91	367	42	31
-36	-88	215	82	31
-109	-139	-187	118	31
-81	57	-433	84	31
-122	30	-307	-134	31
-149	19	126	-380	31
-1	112	545	-252	31
195	121	656	69	31
86	165	382	239	31
120	69	39	299	31
342	46	-743	269	31
-92	-36	-867	237	31
-479	-280	-199	97	31
-126	-272	-52	48	31
184	-59	265	173	31
-90	165	570	109	31
-271	244	359	-73	31
-78	102	77	-111	31
129	-111	-347	-85	31
137	-240	-635	-127	31
65	-338	-387	-106	31
89	-249	242	9	31
102	67	977	137	31
219	204	1097	91	31
124	127	320	165	31
-59	31	-664	216	31
43	-156	-1328	-151	31
11	-372	-1188	-349	31
-98	-294	-570	-136	31
-197	-30	-134	58	31
-184	134	286	-16	31
-105	260	242	-32	31
27	319	109	-144	31
332	333	149	-136	31
120	210	-64	105	31
14	-85	80	-184	31
168	-129	157	-508	31
-44	131	168	-123	31
43	396	194	625	31
7	323	208	685	31
16	39	486	259	31
137	-215	441	134	31
-32	-487	140	2	31
-36	-344	-218	-180	31
-37	-94	-326	-231	31
-20	-182	6	-72	31
-43	-101	147	215	31
-89	32	47	174	31
-47	62	27	93	31
-65	111	-52	162	31
-86	116	-81	7	31
-15	110	-23	-42	31
181	42	177	-112	31
156	-5	179	-147	31
-117	-13	-109	-132	31
-52	-1	-182	-260	31
156	51	-249	-157	31
80	51	-288	-220	31
76	19	-164	-290	31
15	7	36	-97	31
24	-21	253	113	31
117	-47	435	121	31
-87	-24	342	134	31
-76	-4	67	299	31
-11	36	-110	215	31
-74	-3	-337	305	31
-62	-124	-613	147	31
-69	-105	-541	-259	31
21	-31	-115	-190	31
71	59	202	-242	31
27	101	541	-62	31
-64	99	668	98	31
104	84	604	-43	31
96	-17	280	-58	31
-226	-12	-139	-226	31
-41	-11	-197	-228	31
9	-20	-430	-282	31
12	23	-482	-16	31
119	49	-259	392	31
-38	113	-17	358	31
-22	134	122	330	31
-67	139	88	91	31
-92	123	118	-44	31
0	127	-27	-24	31
7	202	-242	-22	31
-12	360	-43	48	31
-42	421	429	-14	31
-59	210	580	-92	31
39	-71	633	-167	31
34	-611	1097	-239	31
-19	-968	1245	-123	31
235	-674	727	172	31
182	-318	192	286	31
-274	-81	-1108	314	31
-182	-114	-2472	240	31
178	2	-2213	103	31
-76	413	-1203	213	31
-392	370	-610	85	31
-75	119	-12	-143	31
122	-49	468	-102	31
-106	-239	322	-81	31
21	-165	560	-49	31
166	-47	468	51	31
129	-17	122	231	31
156	199	-20	237	31
128	352	-70	-122	31
80	263	-29	-254	31
81	-89	53	-80	31
54	-298	344	-36	31
-42	-140	76	-116	31
-101	-17	9	-233	31
-68	21	170	-196	31
136	11	229	-126	31
73	15	217	-164	31
-65	57	69	-212	31
-53	98	-118	-156	31
-57	111	-249	92	31
12	63	61	196	31
-44	26	302	59	31
-39	-14	392	-69	31
-32	0	307	-14	31
-94	53	76	157	31
20	62	16	305	31
93	56	-16	99	31
111	14	-260	91	31
110	6	-376	378	31
64	19	-215	159	31
16	-7	17	91	31
-40	3	289	92	31
-58	23	396	-54	31
-109	34	421	-29	31
-42	54	263	-42	31
-142	23	76	-53	31
-230	-50	144	-129	31
-7	-127	320	-231	31
33	-195	222	-155	31
-37	-51	-116	154	31
77	141	-581	244	31
85	111	-832	102	31
-221	143	-418	66	31
-239	140	27	29	31
-52	61	114	15	31
106	52	180	-150	31
151	89	153	-482	31
119	333	-372	-437	31
82	420	-340	-166	31
-58	-23	198	35	31
24	-347	102	169	31
152	-255	9	49	31
120	-306	69	-33	31
-47	-484	167	-64	31
-9	-430	232	32	31
143	-254	4	139	31
81	-152	-276	139	31
96	-14	-420	-18	31
97	353	-476	-158	31
114	654	-405	104	31
119	504	-91	318	31
53	210	423	84	31
76	-59	582	0	31
90	-362	212	165	31
84	-375	210	0	31
-54	-165	419	-85	31
-124	-45	654	-86	31
-99	22	650	150	31
-154	47	161	377	31
-139	-13	-475	167	31
-134	-50	-1161	67	31
-42	-54	-814	-41	31
34	-19	-33	-178	31
29	38	-3	-109	31
69	124	67	-39	31
44	338	41	-81	31
41	442	-37	-78	31
59	173	9	-84	31
110	-174	-32	-66	31
82	-408	64	-39	31
-89	-496	92	-67	31
-136	-142	75	-22	31
-125	123	124	-6	31
-117	36	101	-14	31
-89	106	27	-7	31
-77	102	52	5	31
-54	89	155	-7	31
-92	117	278	-24	31
-34	12	326	-46	31
45	-31	270	-54	31
-107	-31	223	-48	31
-128	-75	275	-12	31
-65	-278	44	187	31
32	-327	-194	139	31
330	-122	-214	-254	31
195	68	-625	-227	31
-122	254	-598	-39	31
-257	304	-68	1	31
-53	307	284	107	31
50	233	257	124	31
-152	135	26	191	31
23	200	74	91	31
11	166	-61	146	31
-20	-22	-282	119	31
142	-129	-388	-239	31
257	-72	-426	-151	31
103	26	-509	-12	31
-66	77	-178	288	31
52	36	338	429	31
-9	-2	220	33	31
36	142	4	-116	31
109	272	-40	-127	31
66	105	13	-45	31
-81	-105	96	24	31
-73	-237	450	-69	31
105	-411	500	46	31
-67	-204	253	202	31
-84	257	-84	226	31
-30	138	-541	76	31
-37	-215	-258	-77	31
12	-180	41	-259	31
-7	-172	48	-250	31
1	-307	217	-15	31
68	-244	375	-47	31
230	-21	388	49	31
147	49	219	105	31
132	-26	-29	59	31
117	-95	-337	-64	31
-86	-77	-383	-182	31
12	20	-213	-21	31
22	-4	-226	-29	31
-14	7	-187	-114	31
-54	205	0	-227	31
-14	333	354	-267	31
8	275	950	-66	31
-165	152	1230	119	31
-95	-102	925	230	31
-105	-269	666	168	31
-82	-6	177	41	31
-30	332	-799	31	31
-116	292	-1033	86	31
94	41	-424	129	31
202	-219	-123	114	31
51	-385	-149	122	31
-77	-189	-241	149	31
-5	-48	-892	91	31
189	-101	-1378	-212	31
-29	-27	-520	-372	31
-196	17	340	34	31
-128	97	255	234	31
-91	70	427	-48	31
-49	-116	252	-186	31
-27	-95	-99	-157	31
62	34	-111	-2	31
72	109	-389	135	31
28	124	-424	102	31
-8	76	68	79	31
97	65	485	67	31
218	61	345	-19	31
232	22	331	-121	31
174	25	211	-148	31
93	34	-71	-72	31
123	42	53	50	31
58	80	87	91	31
12	81	-52	209	31
-23	87	104	334	31
-120	102	229	357	31
-95	-11	-160	278	31
-96	-103	-378	202	31
-121	-22	-356	22	31
1	29	-174	-387	31
56	-29	207	-349	31
-84	4	532	-221	31
-101	69	739	-200	31
-52	68	492	-33	31
-55	140	167	-39	31
-5	274	116	24	31
-41	232	-11	61	31
-21	57	-164	-27	31
43	-91	-161	-89	31
31	-287	-98	-102	31
-54	-122	-17	-37	31
-134	170	-2	4	31
-71	-270	-81	2	31
-70	-680	-127	6	31
-105	-360	-169	35	31
-62	60	-164	69	31
-51	179	39	94	31
-143	69	286	59	31
-181	32	332	-4	31
15	87	348	14	31
166	113	262	-2	31
172	105	-60	-118	31
252	41	-214	-81	31
173	118	-250	-74	31
-17	289	-75	-62	31
29	214	139	216	31
-19	-72	25	95	31
-167	-256	-191	-227	31
-136	-368	-378	-211	31
-6	-163	-199	-69	31
33	310	199	364	31
24	329	503	544	31
119	127	459	150	31
-18	7	-25	-207	31
-70	-249	-545	-340	31
77	-474	-694	-234	31
19	-408	-423	43	31
104	-150	-457	153	31
92	-12	-596	27	31
44	61	-304	187	31
107	116	59	302	31
18	130	39	41	31
25	288	34	-4	31
7	381	116	-1	31
12	220	87	-60	31
-59	83	161	-21	31
-157	-31	234	34	31
-123	-252	368	101	31
-122	-313	412	16	31
-113	-209	636	-65	31
-76	-127	908	-32	31
-69	-52	580	26	31
11	-31	-94	20	31
103	9	-850	-36	31
82	117	-1290	-24	31
197	110	-666	-4	31
123	166	1	27	31
1	351	-65	-35	31
155	330	141	-151	31
200	215	257	-267	31
54	14	116	-244	31
-204	-322	119	14	31
-181	-338	114	201	31
-126	-25	194	192	31
-219	75	300	121	31
-29	-64	436	27	31
27	-113	394	-12	31
27	-147	252	-63	31
126	-66	185	-179	31
83	22	114	-172	31
52	-23	26	-74	31
-103	-16	-70	151	31
19	-52	-114	201	31
217	-19	-179	85	31
110	38	-296	135	31
134	62	-412	62	31
11	105	-264	-7	31
-185	73	122	-21	31
-114	91	219	25	31
-55	152	56	213	31
-56	198	-231	229	31
-47	122	-620	-35	31
-51	82	-433	-191	31
30	140	88	-74	31
121	-134	41	-172	31
59	-453	-225	-243	31
-123	-255	-67	-126	31
-30	103	268	75	31
108	200	397	210	31
76	214	356	-31	31
101	168	209	-45	31
-75	98	-199	64	31
-37	56	-410	-87	31
34	50	9	-12	31
-144	297	310	127	31
-112	450	296	-80	31
-49	182	220	-202	31
-2	-164	-75	29	31
2	-495	-300	167	31
-9	-716	-107	134	31
-1	-465	214	69	31
-16	-180	209	-19	31
17	-162	187	-109	31
32	-83	185	-177	31
84	-14	138	-7	31
160	66	305	260	31
120	132	82	214	31
38	102	-342	-43	31
-16	29	-528	-149	31
-4	15	-566	-82	31
51	167	-254	98	31
-104	326	-71	71	31
-158	446	37	-104	31
-62	355	145	-29	31
11	49	131	38	31
-48	-169	289	4	31
-61	-291	279	-2	31
52	-149	169	47	31
-29	59	70	-26	31
58	2	-53	-77	31
118	-38	-184	36	31
102	-187	-152	120	31
139	-397	57	82	31
36	-236	68	-81	31
-61	51	83	-115	31
-87	171	114	-90	31
66	-10	110	-51	31
26	-254	81	-7	31
-97	-90	104	-17	31
-51	82	137	-38	31
-69	37	102	-36	31
-61	51	152	104	31
-61	71	68	165	31
-28	116	-189	144	31
21	193	-502	102	31
61	325	-653	19	31
106	359	-235	-14	31
59	172	108	-74	31
60	-17	61	-84	31
93	-264	138	11	31
53	-377	43	96	31
15	-204	14	72	31
-27	-144	105	-44	31
40	-21	0	-163	31
85	264	-79	-174	31
-166	413	6	47	31
-214	310	47	119	31
-74	36	24	79	31
-112	-134	56	199	31
-14	-328	29	86	31
57	-237	31	47	31
109	27	-63	-26	31
151	-62	-51	-106	31
12	-71	244	38	31
-23	-37	585	19	31
59	-19	699	-80	31
19	55	545	-167	31
31	47	244	71	31
111	51	-188	101	31
12	31	-831	-192	31
-8	43	-1105	-265	31
-67	57	-610	-81	31
-173	159	-428	72	31
-76	340	-299	-93	31
-47	250	76	-157	31
-77	-15	52	-121	31
-19	-159	2	11	31
-29	-314	142	89	31
32	-375	330	-7	31
40	-127	422	62	31
-1	26	387	318	31
91	9	380	364	31
16	49	380	123	31
6	39	302	131	31
21	26	69	75	31
9	26	-398	-87	31
37	9	-673	71	31
-76	36	-583	300	31
-57	89	-403	292	31
-72	150	-35	94	31
-106	212	57	-102	31
12	111	-44	-279	31
4	-232	52	-253	31
2	-339	80	-128	31
2	-54	159	-62	31
-58	110	86	-16	31
34	96	42	-40	31
129	97	61	-61	31
86	180	97	-81	31
16	245	132	-72	31
51	89	34	-24	31
62	-76	56	35	31
2	-160	193	-17	31
-2	-108	272	-67	31
-87	-77	260	-13	31
-76	-332	283	22	31
-62	-338	152	124	31
-119	-70	-174	91	31
-26	119	-481	3	31
-17	272	-369	44	31
-11	240	-128	70	31
-40	72	-99	-1	31
39	-82	109	-73	31
120	-240	144	6	31
88	-272	87	9	31
154	-33	50	-97	31
72	317	-22	-134	31
86	684	85	-41	31
173	709	72	28	31
46	166	41	-15	31
-116	-360	26	11	31
10	-714	7	22	31
-12	-809	11	10	31
-99	-533	1	13	31
-17	-174	17	7	31
-100	32	33	22	31
-45	82	94	37	31
27	133	71	39	31
46	140	-24	32	31
-16	145	-109	18	31
13	145	-85	-4	31
137	154	32	33	31
60	255	61	60	31
91	265	25	27	31
106	53	-94	27	31
13	-88	-130	30	31
15	150	-50	19	31
-4	303	-39	24	31
-31	-6	-33	39	31
-44	-163	-35	27	31
-74	114	-129	-20	31
-56	343	-164	-42	31
-91	387	-128	-36	31
-72	516	-131	-39	31
13	769	-82	-77	31
-2	564	115	-91	31
18	-210	260	36	31
41	-726	197	257	31
42	-1237	163	227	31
54	-1615	154	-22	31
34	-925	137	-71	31
7	-102	151	-16	31
-41	34	139	-50	31
-40	76	117	-226	31
-55	139	2	-190	31
-95	104	-84	44	31
-82	123	-106	31	31
-107	121	-149	57	31
-92	143	56	22	31
-67	167	504	-100	31
-30	148	580	-94	31
7	182	405	-12	31
3	213	184	111	31
37	239	-381	113	31
31	118	-902	57	31
11	-234	-1212	77	31
9	-268	-1143	235	31
-17	65	-616	75	31
11	163	-284	-223	31
57	127	149	-177	31
26	116	602	-49	31
-35	74	487	2	31
-67	87	350	41	31
-88	76	252	198	31
-68	84	251	98	31
-22	97	318	26	31
4	78	247	47	31
62	56	122	-32	31
92	-18	20	-6	31
59	-58	-55	-9	31
26	-52	-159	24	31
32	26	-45	0	31
172	249	118	-11	31
124	354	169	-10	31
26	126	114	9	31
95	-123	56	22	31
28	-287	33	-11	31
-19	-310	-52	-41	31
-89	-19	-94	-147	31
-31	182	-19	-126	31
36	99	154	67	31
-67	-185	420	140	31
-3	-352	601	2	31
19	-168	324	12	31
26	76	-133	86	31
64	230	-711	104	31
101	203	-1080	83	31
121	581	-620	-86	31
24	1193	-356	-238	31
14	927	-300	-287	31
87	470	-54	-55	31
33	-76	-1	287	31
-67	-1289	257	325	31
-59	-1803	390	115	31
-72	-1257	352	27	31
-79	-539	282	78	31
-85	-177	225	78	31
-97	-48	166	52	31
-82	77	-4	4	31
-71	46	-17	-14	31
-31	121	-140	-56	31
-21	155	-146	-147	31
-7	164	29	-140	31
30	235	137	-50	31
79	285	182	-25	31
79	115	181	-15	31
39	-192	60	11	31
44	-84	-83	-8	31
23	39	-12	-24	31
-7	46	87	-25	31
-50	170	84	51	31
-61	388	-1	91	31
-54	574	-26	99	31
-141	689	-58	160	31
-169	848	-184	109	31
-7	501	-256	-88	31
56	-244	-84	-560	31
-45	-772	102	-813	31
72	-877	76	-170	31
199	-640	-62	325	31
138	-538	-210	245	31
111	-442	-227	126	31
99	-86	-112	-24	31
79	47	47	88	31
51	51	133	238	31
11	131	212	248	31
-31	99	320	162	31
-59	215	377	34	31
-41	364	313	-89	31
-35	564	203	-82	31
-94	718	131	-16	31
-104	406	-59	-64	31
3	-103	-162	2	31
-19	-534	-87	-52	31
-157	-734	-77	-113	31
-2	-516	-135	201	31
82	-98	-190	413	31
29	253	-137	181	31
142	450	-471	-13	31
77	234	-758	69	31
26	9	2	56	31
35	5	622	-101	31
-17	-154	591	-161	31
-27	-52	418	-140	31
-36	75	197	94	31
-94	-110	109	156	31
-126	-94	-192	-132	31
4	-96	-232	-11	31
22	-276	-166	32	31
-61	-303	-352	-132	31
-62	-154	-165	-106	31
-21	36	17	-149	31
61	95	-294	-34	31
129	117	-418	75	31
152	135	165	309	31
135	119	457	427	31
89	255	382	94	31
37	460	490	-337	31
44	362	630	-530	31
56	-47	337	-468	31
7	-241	67	-450	31
-21	-321	136	-96	31
-44	-378	13	390	31
-67	-64	37	545	31
-12	20	-445	468	31
42	-175	-876	19	31
-7	-127	-665	-220	31
-19	4	-367	102	31
44	197	-129	292	31
32	312	-66	-18	31
9	283	310	-618	31
7	272	177	-508	31
-5	212	-264	231	31
-14	114	-327	631	31
-41	35	-250	209	31
-61	-23	154	-527	31
-66	-44	480	-689	31
-62	-39	59	-547	31
-59	-42	56	-67	31
-78	-24	312	382	31
-66	-2	-386	583	31
-38	-21	-147	711	31
-1	-80	434	557	31
65	-116	269	527	31
136	-143	295	643	31
207	-139	-57	379	31
196	-86	-775	-375	31
70	-52	149	-1054	31
-41	85	699	-1180	31
-131	275	-699	-881	31
-261	458	-611	-583	31
-308	475	281	33	31
-251	186	489	1135	31
-95	-135	1110	2100	31
84	-437	1944	918	31
112	-676	1143	-1181	31
67	-608	-115	-1109	31
52	-112	-446	-669	31
22	352	-995	-160	31
43	499	-870	13	31
86	526	-490	-224	31
102	488	-645	94	31
177	184	-869	357	31
214	-478	-444	1065	31
222	-700	168	1286	31
210	-401	-723	366	31
141	-101	-779	-732	31
75	64	-369	-1251	31
-3	61	449	-1604	31
-27	61	2026	-1403	31
-27	-39	-44	-409	31
-44	-111	-1304	1046	31
-96	-84	-306	1487	31
-195	-39	52	540	31
-250	35	854	467	31
-230	208	712	980	31
-235	544	733	487	31
-191	647	529	-784	31
44	509	217	-772	31
199	449	-10	289	31
204	73	-964	943	31
191	-548	-1002	52	31
134	-714	-239	-459	31
56	-666	-543	606	31
-18	-406	-625	518	31
24	-47	1138	159	31
118	-194	1686	-22	31
135	-223	2001	-1483	31
110	-176	1684	-2201	31
56	-208	-540	-1348	31
-67	-47	-1163	-743	31
-244	76	-1074	1057	31
-305	348	-523	2682	31
-249	392	127	2424	31
-235	142	-537	595	31
-247	81	-508	-1478	31
-199	155	-457	-1276	31
-30	154	-319	-1393	31
114	119	214	-1252	31
148	81	572	-645	31
239	22	1568	-733	31
316	202	1733	-201	31
336	336	1488	584	31
294	263	269	2166	31
149	105	-2314	2214	31
15	-124	-3078	-355	31
-87	-281	-3075	-450	31
-82	-497	-1603	1932	31
16	-489	658	1983	31
59	-199	1111	153	31
32	-46	1010	-246	31
-61	-52	463	-693	31
-205	61	585	-2326	31
-372	335	1183	-2556	31
-334	369	1286	-2271	31
-115	315	1136	-637	31
4	232	503	2532	31
151	22	-336	3924	31
259	-131	-1616	1367	31
197	-319	-2513	-1832	31
197	-234	-540	-1530	31
122	29	1251	-1014	31
-60	35	720	-342	31
-142	-6	182	1349	31
-156	-35	-678	2008	31
-154	-139	-1082	1369	31
-223	-229	-382	-430	31
-159	-214	999	-1528	31
19	-128	1367	-720	31
-1	-62	-25	-139	31
-37	107	-577	570	31
-41	362	-251	418	31
-34	339	104	-798	31
2	68	770	-948	31
-14	57	311	-785	31
71	148	-395	159	31
256	19	390	378	31
266	-56	491	263	31
111	-72	536	-88	31
-65	-70	182	-658	31
-282	15	-726	-114	31
-364	62	-542	174	31
-205	46	-318	319	31
90	75	-274	492	31
312	54	-428	-365	31
363	-36	-195	-715	31
374	-85	984	147	31
346	-94	1601	587	31
257	-4	-456	1144	31
143	81	-2268	781	31
89	120	-94	237	31
60	101	1963	126	31
-4	-46	1093	-492	31
-176	-136	21	-105	31
-285	-105	-1019	-231	31
-216	-91	-774	-968	31
-137	-33	51	-756	31
14	39	230	-214	31
164	17	405	179	31
147	-6	-508	-102	31
95	-29	-799	-28	31
116	-7	-631	112	31
101	-4	-81	-338	31
64	-37	586	-67	31
2	-7	673	-4	31
-100	-34	850	33	31
-187	-57	406	218	31
-205	-56	-549	617	31
-76	-35	-1060	1106	31
-20	34	-555	414	31
-32	56	-72	386	31
-30	61	380	636	31
-71	5	225	-4	31
-56	12	70	-971	31
-67	82	272	-1257	31
-142	22	256	-622	31
-169	6	437	-457	31
-116	2	385	-414	31
-103	-6	441	-462	31
-61	21	184	-285	31
26	13	-292	-150	31
61	200	-944	94	31
78	384	-1325	420	31
1	207	-270	533	31
-101	-31	969	1229	31
-149	-257	831	948	31
-181	-480	209	502	31
-224	-235	-86	160	31
-174	-7	239	-298	31
-100	-56	74	139	31
-101	27	-320	570	31
-74	14	-415	1008	31
-52	4	-551	116	31
-39	39	-220	-699	31
-4	45	-60	-727	31
84	54	735	-774	31
179	21	831	-92	31
215	48	57	-52	31
186	66	-401	-257	31
79	52	-835	-210	31
21	67	-1002	-281	31
51	155	-886	-318	31
33	44	-305	-124	31
-83	-234	545	5	31
-128	-175	1297	-37	31
-71	35	1237	-80	31
-87	61	1178	54	31
-81	20	278	234	31
-24	9	-530	191	31
-5	-2	-372	342	31
26	-6	-8	326	31
57	-6	784	202	31
80	-18	545	-152	31
96	-9	-474	-464	31
112	27	-1605	-268	31
116	44	-1491	-154	31
97	37	-457	542	31
54	52	92	1129	31
21	34	251	147	31
-2	6	-22	-226	31
-74	11	-213	10	31
-92	2	320	-282	31
-47	3	580	-272	31
-61	-8	591	-349	31
-45	-9	723	-150	31
-25	-10	359	-36	31
-41	-17	423	340	31
68	4	230	602	31
143	24	-799	484	31
104	44	-1541	244	31
140	42	-785	-445	31
159	27	118	-369	31
133	16	-408	-439	31
132	-4	-682	-395	31
88	1	296	-282	31
27	6	1135	-218	31
-15	10	915	140	31
-53	3	383	47	31
-84	-2	-86	25	31
-103	-2	-150	-18	31
-117	-17	-159	382	31
-104	-9	-41	414	31
-48	-16	339	98	31
21	-15	353	48	31
71	2	324	-150	31
40	-2	375	-160	31
12	-1	262	-197	31
39	-22	-126	51	31
31	-34	-423	371	31
47	-23	-313	-159	31
57	-34	64	-1024	31
7	-24	-81	-508	31
-42	-5	-148	1154	31
-59	-1	-156	1384	31
-26	17	136	-191	31
-55	115	651	-297	31
-109	222	-185	180	31
-89	38	-731	-7	31
-54	-189	-944	-42	31
-19	-99	-792	-721	31
6	33	-8	-402	31
20	59	506	39	31
28	152	407	45	31
62	390	-122	37	31
117	449	-348	-192	31
97	219	-46	29	31
27	-2	756	429	31
-12	-353	634	248	31
21	-670	245	-39	31
-7	-476	-50	124	31
-89	-125	-240	-152	31
-16	-46	152	-34	31
31	-22	919	68	31
-86	21	1110	87	31
-66	0	23	157	31
15	4	-568	17	31
-37	4	-666	41	31
60	52	-561	-99	31
98	176	-571	-141	31
78	410	-383	-35	31
92	644	-89	286	31
29	475	-374	51	31
52	-26	-498	-225	31
24	-490	-513	-12	31
-19	-798	-496	-200	31
46	-623	-507	-199	31
44	-133	598	27	31
-139	-47	1449	104	31
-119	-47	789	74	31
11	41	527	-156	31
-61	31	481	-233	31
-29	108	180	-189	31
-6	114	-19	198	31
3	137	57	853	31
69	238	-147	520	31
89	204	132	-196	31
92	-113	531	-30	31
73	-292	-333	1	31
109	-13	-906	-294	31
102	131	-837	-370	31
-9	80	-232	-152	31
-11	77	160	6	31
44	69	24	-105	31
-114	76	278	-26	31
-88	54	202	-42	31
-6	93	184	-2	31
-177	150	99	12	31
-100	12	42	-6	31
-20	-139	134	72	31
-11	-56	76	88	31
-22	43	93	147	31
-114	51	97	145	31
-17	44	230	131	31
75	1	114	75	31
115	-4	-85	27	31
117	-17	-300	-30	31
91	-26	-323	-89	31
117	-2	-263	-82	31
59	20	-212	27	31
-114	42	-22	102	31
-183	48	27	-121	31
-86	73	65	-188	31
0	72	-14	-7	31
-7	31	284	46	31
14	-49	402	107	31
49	-98	-15	269	31
36	-85	-416	340	31
23	-62	-660	-47	31
60	-2	-17	-612	31
113	97	498	-444	31
84	280	357	-54	31
74	330	373	44	31
67	249	166	66	31
56	235	24	0	31
1	-64	-159	234	31
-61	-319	-297	231	31
-85	-160	-222	-329	31
-57	84	-201	-650	31
-91	287	-363	-184	31
-139	-17	-540	253	31
11	-571	214	161	31
-38	-661	739	183	31
-108	-585	460	162	31
-36	-281	-101	142	31
81	80	-487	58	31
88	267	-121	32	31
-42	493	219	141	31
49	378	282	184	31
110	154	200	351	31
48	-88	90	317	31
-49	-432	31	153	31
-83	-470	-94	44	31
12	-242	-212	-346	31
-11	2	-140	-365	31
-137	31	-34	-69	31
-56	68	67	-102	31
19	123	142	7	31
32	125	109	32	31
-39	151	146	27	31
-97	157	104	47	31
121	260	-13	16	31
6	74	-193	52	31
76	-271	-245	37	31
325	-184	-93	31	31
-30	72	-4	-96	31
-57	146	12	-201	31
85	162	-2	-249	31
-16	79	89	-302	31
51	-62	97	-251	31
-3	21	-104	158	31
19	106	-144	490	31
19	74	56	300	31
-61	-26	200	195	31
-34	-79	343	116	31
-56	119	581	36	31
19	514	617	101	31
-27	1015	194	6	31
-28	1090	-483	-39	31
152	199	-972	-6	31
222	-967	-891	136	31
134	-1353	-525	63	31
26	-902	-86	-254	31
35	-361	265	-206	31
63	-213	418	-155	31
35	-136	533	-100	31
-98	-10	382	-23	31
-101	196	107	-14	31
-32	432	-187	56	31
-195	376	-343	57	31
-78	247	-331	64	31
15	39	-336	10	31
-115	-267	-49	-66	31
75	-343	286	-111	31
38	-388	585	-37	31
89	-446	947	32	31
104	-202	443	-23	31
-42	162	-285	-19	31
-25	276	-140	39	31
-114	236	9	64	31
82	169	-156	52	31
162	53	-440	117	31
2	12	-590	106	31
-124	62	-265	-171	31
-122	140	67	-162	31
-124	182	-61	233	31
-177	212	-97	202	31
-142	178	-53	-92	31
-56	48	-235	-79	31
74	-37	19	81	31
-189	-32	398	2	31
-7	23	340	-98	31
200	14	-8	-127	31
7	14	-134	-51	31
139	58	-152	124	31
107	212	-284	89	31
157	569	3	110	31
18	883	363	156	31
-140	858	274	11	31
-159	500	452	-153	31
-32	-99	714	-278	31
91	-1017	309	-292	31
-147	-1424	-119	91	31
-96	-772	-438	295	31
-198	-235	-626	-2	31
-174	-42	-490	-1	31
46	104	-267	125	31
12	-29	-56	137	31
34	-5	22	272	31
159	106	14	224	31
187	157	-12	-93	31
77	76	45	-136	31
18	-67	50	-29	31
33	-29	184	-112	31
44	47	252	40	31
61	498	218	157	31
41	1038	453	9	31
-57	609	490	-102	31
57	-558	310	-176	31
-64	-1211	139	-184	31
-177	-1019	-92	-124	31
-22	-523	-315	-72	31
-61	-153	-488	-116	31
-103	136	-573	-210	31
-115	359	-734	-26	31
116	357	-856	34	31
134	172	-648	-157	31
-42	170	-89	178	31
283	411	539	298	31
204	532	825	90	31
-45	592	471	228	31
32	299	57	173	31
-6	-620	146	70	31
-178	-1337	99	6	31
-291	-1314	97	-34	31
98	-679	132	-14	31
129	189	109	-50	31
-92	567	161	-52	31
-236	473	180	-108	31
-176	148	360	-106	31
111	-196	381	9	31
-41	165	186	231	31
31	720	106	229	31
51	598	152	93	31
180	444	-98	13	31
100	28	-363	-188	31
-79	-676	-479	-188	31
149	-496	-583	-91	31
230	-215	-257	-56	31
216	-214	72	7	31
-133	242	269	-62	31
-116	649	403	-150	31
-112	800	348	46	31
-217	664	107	227	31
-56	398	-228	56	31
-106	-74	-352	-33	31
26	-822	-329	-36	31
78	-754	-181	-96	31
97	-326	-117	-103	31
195	-119	-106	2	31
277	78	-32	167	31
197	195	-164	201	31
22	471	-197	123	31
-7	390	253	69	31
-70	-71	598	31	31
37	-489	405	-28	31
-22	-569	87	1	31
-80	-466	-387	51	31
-83	-437	-704	52	31
-164	-166	-363	-35	31
-45	105	70	-135	31
-122	311	218	-152	31
-85	725	205	-176	31
-44	1161	237	-218	31
-34	1166	365	-246	31
149	558	363	-167	31
69	-345	460	172	31
114	-1029	475	410	31
127	-1376	56	222	31
-49	-1148	-347	89	31
-4	-581	-646	64	31
-53	22	-846	16	31
-61	691	-496	52	31
-74	721	164	27	31
-214	376	490	-20	31
9	-40	327	-60	31
135	-487	-122	13	31
-11	-687	-199	116	31
-223	-417	287	-99	31
50	162	643	-334	31
301	206	489	-86	31
68	244	289	221	31
10	278	-151	171	31
64	162	-631	149	31
150	272	-523	-26	31
-145	262	-290	-90	31
-99	210	-55	140	31
-62	16	-172	-69	31
2	-315	-284	-14	31
352	-646	-137	177	31
-48	-545	-26	-37	31
-227	-111	325	-84	31
-304	59	573	-194	31
-167	184	615	-148	31
115	287	377	91	31
147	370	-21	-48	31
262	362	-599	-186	31
-162	334	-656	53	31
-385	428	-122	161	31
-68	400	158	174	31
304	183	-64	-84	31
36	79	-877	-315	31
-337	152	-906	207	31
36	199	-457	291	31
172	221	-147	55	31
422	74	255	82	31
209	-151	328	-2	31
-322	-186	385	-15	31
200	-78	537	-42	31
177	-291	794	-174	31
-192	-640	830	-285	31
-120	-358	588	-111	31
-302	248	343	-29	31
67	471	-111	-18	31
228	267	-449	307	31
108	-52	-290	381	31
312	-491	-222	72	31
197	-660	-363	78	31
253	-291	-207	253	31
397	34	52	88	31
465	54	-166	77	31
-264	-82	-511	64	31
-677	-163	-513	-254	31
-53	-61	29	-565	31
-147	74	618	-409	31
-186	166	638	-226	31
-338	251	368	-278	31
-312	205	161	-281	31
362	169	245	-325	31
24	197	239	310	31
-288	63	293	775	31
101	-112	595	305	31
248	-117	119	-21	31
306	-64	-792	186	31
157	-69	-823	250	31
-57	72	-430	258	31
279	111	-195	440	31
309	-1	304	60	31
-95	196	1097	-287	31
-162	463	1286	-210	31
-310	255	698	-195	31
-383	-201	131	-165	31
-127	-349	-353	-74	31
-78	-345	-513	-52	31
-343	-258	-317	-194	31
119	-194	-433	-99	31
477	-192	-754	-34	31
-170	-51	-1169	-153	31
-493	195	-1125	260	31
-417	476	-720	679	31
154	531	-405	423	31
528	574	145	71	31
487	375	300	-119	31
515	-91	606	-312	31
-31	-252	774	-337	31
-152	-360	481	-353	31
284	-491	395	-432	31
111	-516	-1	12	31
-397	-356	-287	382	31
-502	-126	-122	57	31
-206	72	284	-224	31
-58	125	402	122	31
-182	67	187	591	31
-219	76	-49	250	31
-24	-85	-340	-6	31
234	-195	-300	74	31
297	-220	91	-182	31
217	-205	641	-295	31
365	4	663	-154	31
156	275	47	-15	31
-152	431	-315	-89	31
18	415	-62	-87	31
-142	255	671	-41	31
-248	84	1014	111	31
-96	343	406	183	31
-205	373	-394	-219	31
-114	-121	-892	-187	31
350	-430	-708	24	31
345	-608	57	-105	31
-235	-398	453	-70	31
-378	-55	17	-1	31
-239	-14	-811	-20	31
-76	49	-811	61	31
264	137	-428	542	31
389	199	-516	785	31
286	228	-792	364	31
347	199	-746	255	31
457	12	-548	197	31
198	-194	-28	-153	31
-195	-49	990	-435	31
-337	159	995	-558	31
-244	68	585	-451	31
-273	-55	561	-146	31
-349	-106	275	477	31
-198	-184	-13	636	31
31	-230	42	64	31
-292	-262	77	-406	31
-295	-149	-151	-498	31
369	-1	-149	-460	31
112	108	-177	-429	31
169	257	-165	86	31
513	286	-132	630	31
365	320	22	202	31
167	293	384	-76	31
-72	123	350	61	31
62	-34	382	-20	31
-86	-135	578	-37	31
-89	-9	494	-90	31
-86	174	328	-36	31
-357	97	816	34	31
-495	-255	929	-29	31
-177	-500	2	-78	31
354	-317	-429	31	31
167	-132	-498	219	31
17	-52	-570	102	31
-173	61	-641	-73	31
-296	134	-888	-111	31
42	117	-1363	-129	31
354	51	-1277	-14	31
475	172	-300	24	31
279	224	399	-91	31
155	142	636	-163	31
-26	57	492	81	31
-244	-96	197	-45	31
-88	-154	-70	-336	31
152	-117	-71	282	31
62	-41	5	980	31
34	-35	62	473	31
265	-50	146	-219	31
77	-56	-87	-204	31
-64	14	-54	-451	31
-19	169	-37	-144	31
-214	124	239	229	31
-388	113	546	264	31
-196	172	198	265	31
151	150	66	164	31
325	23	-81	190	31
175	-196	40	-104	31
6	-329	280	-231	31
234	-315	220	-401	31
-75	8	285	-276	31
-375	-27	-89	-13	31
-181	-298	-420	233	31
-467	130	-130	373	31
-390	575	-29	-12	31
-60	476	-96	-72	31
-90	220	228	-199	31
204	-52	417	-249	31
229	-443	173	54	31
-6	-511	-53	240	31
81	-201	-205	178	31
387	-38	-477	17	31
348	11	-287	-240	31
-334	71	107	-396	31
-337	85	140	-115	31
-74	64	496	-32	31
24	50	668	162	31
386	-37	375	190	31
346	-66	204	-27	31
-338	-55	-98	-4	31
-566	38	-139	-13	31
-97	471	440	-89	31
42	685	538	-474	31
281	307	-184	-597	31
105	-159	-839	-252	31
-280	-541	-1052	213	31
-51	-682	-909	387	31
93	-217	-659	262	31
-12	187	-546	356	31
17	206	-169	320	31
153	253	299	297	31
76	114	468	329	31
46	-4	352	169	31
-61	174	-136	114	31
-116	365	-447	-77	31
-71	413	-306	-300	31
-147	249	-52	-297	31
-152	-290	-64	-34	31
-29	-740	169	184	31
161	-631	337	62	31
-12	-321	331	-42	31
-39	-36	479	-229	31
138	19	310	-285	31
57	21	402	-4	31
159	48	581	334	31
111	-2	672	381	31
42	88	706	-61	31
23	101	-28	0	31
-99	29	-859	127	31
-20	112	-1065	-119	31
-47	235	-1114	-4	31
-106	86	-391	69	31
-259	-20	397	2	31
-122	74	541	-11	31
152	61	593	-16	31
-79	9	180	-25	31
56	16	53	-122	31
132	159	-123	-310	31
-20	256	-325	-189	31
64	411	-183	87	31
94	343	49	28	31
188	-66	172	-97	31
5	-491	133	14	31
55	-824	320	47	31
42	-330	213	26	31
-432	199	93	-81	31
-136	159	324	-202	31
62	95	608	-237	31
7	-174	596	-212	31
56	-210	418	322	31
12	-115	-31	500	31
137	-70	-586	73	31
-30	29	-871	199	31
-81	2	-987	222	31
6	87	-795	-15	31
2	297	-446	-64	31
56	453	13	-176	31
141	301	134	-176	31
96	74	-45	-265	31
-38	-69	-106	-250	31
-21	-325	2	-29	31
-217	-356	322	503	31
-199	-164	407	793	31
40	-124	51	172	31
-44	-52	-375	-22	31
-59	70	-709	-2	31
-62	-26	-479	-414	31
-37	-33	127	-320	31
67	72	515	-91	31
114	103	717	-22	31
61	102	548	86	31
138	110	410	74	31
330	205	46	-44	31
247	416	-255	36	31
-32	643	8	132	31
-173	402	14	-51	31
100	-16	52	-14	31
69	-365	219	72	31
-121	-762	340	95	31
-16	-594	275	63	31
-173	-53	-53	-135	31
-152	156	-231	-270	31
-51	49	-258	-264	31
-207	-24	-298	152	31
-220	-117	-244	454	31
0	-255	41	102	31
-6	-229	81	-139	31
-112	-147	50	-97	31
238	-34	178	-166	31
309	34	172	-84	31
263	108	121	-5	31
350	213	49	-45	31
203	24	131	26	31
119	-222	385	49	31
-12	-148	236	49	31
12	29	-153	16	31
-30	121	-352	42	31
-192	160	-75	-102	31
-234	226	373	-250	31
-130	269	-103	151	31
69	242	-590	708	31
-127	237	-716	505	31
-149	179	-556	-474	31
-23	86	76	-637	31
-21	17	184	-240	31
101	-212	168	114	31
142	-352	18	324	31
146	-142	-345	62	31
-58	24	-250	21	31
-124	42	240	1	31
-66	109	425	19	31
-47	286	265	33	31
-67	338	58	4	31
-81	97	-337	69	31
103	-81	-320	51	31
14	-131	18	60	31
25	62	162	-5	31
25	410	124	-124	31
-101	134	69	-191	31
22	-400	139	-48	31
51	-636	196	35	31
35	-702	203	54	31
-24	-325	147	74	31
-103	34	34	-14	31
7	24	-82	32	31
99	69	-99	-19	31
-37	52	-139	-52	31
-42	89	-24	-16	31
59	320	438	60	31
14	390	686	69	31
-41	255	444	-80	31
-44	-16	-101	-46	31
-64	-265	-244	26	31
-61	-375	-297	82	31
-31	-377	-576	31	31
-69	-123	-312	-48	31
4	160	0	18	31
-84	238	-17	92	31
2	230	-149	197	31
167	197	-87	162	31
-145	122	165	30	31
11	18	292	68	31
191	66	434	174	31
20	356	345	144	31
-19	465	-152	-74	31
-49	28	-552	-286	31
-104	-260	-556	-366	31
-187	-46	-380	-384	31
56	164	-146	-384	31
27	164	127	-117	31
-27	-2	307	180	31
77	-227	179	162	31
210	-298	25	295	31
227	-227	160	195	31
-280	-419	113	2	31
-19	-458	3	81	31
198	-143	70	-22	31
60	-97	57	-64	31
112	-66	257	-96	31
-91	71	597	-105	31
42	90	751	-14	31
39	61	532	-13	31
-92	60	137	7	31
-24	66	-364	32	31
49	70	-1066	78	31
27	114	-1111	161	31
-53	87	-553	174	31
-72	54	-250	92	31
-27	46	-27	62	31
53	44	310	102	31
-37	60	227	94	31
7	32	-10	-20	31
134	39	-174	-340	31
113	53	-170	-518	31
97	102	49	-257	31
52	308	298	76	31
-62	511	249	460	31
-52	317	-269	385	31
47	-96	-306	-177	31
-27	-350	-183	-310	31
-141	-481	-91	-477	31
-188	-352	330	-21	31
-156	-210	580	506	31
-59	-157	149	293	31
113	-19	-365	851	31
126	67	-283	183	31
-51	171	-628	-560	31
76	200	-873	115	31
154	214	4	-166	31
144	236	776	-84	31
35	127	618	-92	31
-156	22	511	-369	31
-297	25	488	-25	31
-262	-52	360	-22	31
62	-244	328	58	31
38	-172	28	62	31
177	-27	-116	-16	31
184	110	-177	24	31
9	153	-88	-27	31
131	16	47	-22	31
12	137	-14	-23	31
31	209	41	-13	31
75	117	283	-39	31
72	41	497	-47	31
90	-263	246	-45	31
89	-641	-63	-1	31
113	-455	-413	99	31
72	9	-678	77	31
77	52	-358	34	31
-11	52	-26	27	31
-23	94	75	23	31
-22	87	143	32	31
-86	126	176	19	31
-101	49	114	-8	31
-110	-39	68	-14	31
-79	-34	131	27	31
-72	33	82	58	31
-87	29	-108	52	31
-91	59	-176	66	31
-47	194	-74	34	31
36	262	-95	-6	31
86	150	-175	-82	31
9	131	-109	-111	31
1	333	-47	-53	31
39	357	-70	-81	31
37	196	-171	-36	31
57	-160	-150	134	31
27	-596	134	167	31
35	-714	181	8	31
-42	-586	38	-52	31
7	-254	-1	-140	31
2	35	-56	-86	31
-182	-39	-34	154	31
-78	-17	185	91	31
-89	103	418	8	31
-186	22	227	104	31
14	-31	-51	109	31
114	-111	-224	9	31
42	-96	-520	-19	31
182	77	-460	-44	31
108	301	59	-42	31
103	637	430	32	31
292	559	417	50	31
-100	155	267	68	31
-240	-85	-1	37	31
0	-285	-229	-6	31
-3	-194	-126	-4	31
-66	-4	121	10	31
-136	-42	200	14	31
-79	13	100	-117	31
-21	32	-50	-214	31
4	66	146	-67	31
31	153	338	-11	31
7	104	180	-12	31
54	90	12	-7	31
84	44	-467	-36	31
104	-2	-643	39	31
109	-20	-367	51	31
30	-57	-162	30	31
12	-136	60	11	31
35	-237	-4	-29	31
22	-179	84	-57	31
-35	-47	292	-4	31
-144	46	242	92	31
-39	71	111	144	31
26	-37	-47	202	31
-128	-102	-78	194	31
-76	-15	-227	116	31
14	26	-388	-37	31
-11	10	-37	-178	31
-57	16	618	-179	31
12	7	804	-234	31
84	17	338	-205	31
9	-21	-275	-11	31
11	-111	-561	80	31
29	-63	-457	-12	31
87	226	-259	-172	31
114	499	-71	-255	31
13	458	-151	99	31
-4	293	-389	705	31
32	60	-71	607	31
-111	-364	720	-81	31
-152	-373	775	-269	31
-220	57	370	-62	31
-190	105	9	-169	31
169	-23	-399	27	31
71	-263	-420	136	31
-33	-555	-447	-164	31
-10	-295	-242	92	31
45	-49	111	319	31
192	-4	214	106	31
114	61	89	-17	31
57	2	121	5	31
-47	34	20	-24	31
43	29	-367	-54	31
62	38	-86	2	31
-69	82	44	-79	31
-76	32	151	-325	31
-179	33	433	-239	31
-77	48	335	94	31
79	62	156	51	31
71	42	-112	-56	31
41	41	-357	-32	31
49	35	-175	-111	31
97	132	546	-99	31
7	374	663	-101	31
16	334	272	-60	31
101	80	-75	54	31
129	-150	-590	215	31
42	-393	-604	295	31
-97	-332	-397	112	31
19	-83	42	27	31
-67	-59	334	31	31
-141	8	40	29	31
-25	111	26	33	31
-114	138	-73	-4	31
-44	154	-299	18	31
4	47	-222	49	31
-39	-33	78	16	31
23	149	198	-22	31
-28	436	116	-30	31
-6	418	140	-52	31
94	156	66	-52	31
44	-147	13	-29	31
116	-377	-72	-14	31
-16	-553	-60	-38	31
-193	-509	-24	-50	31
109	-134	-90	10	31
6	-10	-3	29	31
-176	-68	38	7	31
-86	-88	112	-6	31
-142	-50	176	4	31
-4	49	124	46	31
-5	-21	233	17	31
-2	-1	252	-41	31
-35	82	223	-9	31
-36	113	252	144	31
185	117	157	214	31
141	91	-35	-2	31
120	135	-197	-246	31
56	140	-193	-166	31
-26	178	-238	8	31
6	182	-84	17	31
31	-53	62	83	31
-26	-240	34	27	31
-102	20	332	-67	31
-141	331	461	-47	31
-209	213	225	-91	31
-50	-23	-86	-116	31
4	-172	-570	-157	31
-58	-104	-854	6	31
28	174	-450	249	31
144	153	-76	237	31
164	-150	-52	134	31
129	-357	41	97	31
189	-481	-33	-39	31
168	-323	-81	-170	31
108	19	117	7	31
101	134	488	167	31
96	190	777	91	31
9	154	523	51	31
-57	77	109	29	31
29	101	-71	18	31
-77	43	-435	24	31
-108	7	-581	-80	31
15	-40	-210	-114	31
-123	-77	-382	-31	31
-72	-16	-636	144	31
29	39	-562	79	31
-121	67	-242	11	31
-82	78	257	146	31
46	76	187	97	31
53	23	125	-4	31
-21	66	204	-165	31
-18	172	427	-160	31
124	25	614	-114	31
176	-184	467	-65	31
87	-172	357	108	31
40	-61	-59	112	31
-46	8	-528	-79	31
-91	-14	-461	-69	31
-24	-25	81	-1	31
-74	-12	438	-168	31
-38	-9	472	-23	31
-34	83	425	50	31
-42	217	189	-14	31
37	390	103	47	31
60	453	4	184	31
54	162	-459	156	31
79	-230	-877	-136	31
112	-461	-771	-129	31
-44	-368	-427	-144	31
-5	-17	-47	-140	31
53	48	184	93	31
-79	-41	174	104	31
-93	-85	335	99	31
-48	-166	232	250	31
20	-59	-73	181	31
-14	94	-135	17	31
-14	245	22	85	31
-59	403	47	62	31
-34	539	16	19	31
15	471	141	47	31
62	-109	38	-16	31
92	-650	-16	-69	31
-54	-764	-4	-175	31
46	-558	-4	-242	31
180	-190	82	-217	31
89	-53	155	-92	31
-139	-147	156	108	31
-74	-12	54	219	31
97	165	49	102	31
-17	293	87	-57	31
-65	646	89	-72	31
-119	527	46	-31	31
-65	99	52	14	31
-12	-104	69	-14	31
-76	-409	41	-18	31
-49	-490	36	-59	31
49	-220	69	-110	31
49	14	170	26	31
-14	12	156	119	31
81	-94	71	16	31
121	-32	-16	-41	31
81	175	-146	-6	31
14	210	-225	-1	31
-35	43	-200	-17	31
-31	-17	-114	-10	31
-42	-87	-97	40	31
-41	41	-87	21	31
-67	238	-85	23	31
-99	21	-41	61	31
-99	-158	87	27	31
-48	-32	101	-27	31
-7	154	27	-46	31
26	225	31	-33	31
42	242	91	-39	31
50	341	-4	-13	31
56	253	-46	11	31
21	16	-19	32	31
58	47	-259	77	31
116	56	-299	81	31
65	-43	-126	64	31
11	-323	-107	20	31
-28	-820	-47	-14	31
-95	-681	96	7	31
-88	-152	309	17	31
-44	56	285	16	31
-76	89	-26	36	31
-63	151	-116	99	31
-69	197	62	52	31
-79	160	0	-112	31
-25	154	-79	-86	31
29	39	-41	-1	31
146	-121	-126	-31	31
92	-62	3	-2	31
29	143	345	48	31
100	313	635	58	31
50	276	430	-7	31
20	39	239	-209	31
-20	-205	-23	-384	31
-26	-325	-606	-249	31
45	-253	-520	270	31
59	-13	-303	541	31
-37	89	-202	248	31
-97	38	32	36	31
4	71	159	29	31
-39	61	509	94	31
-45	86	853	122	31
37	118	744	54	31
63	80	296	-7	31
162	127	-609	-154	31
-65	77	-1321	-92	31
-121	-84	-1289	92	31
162	-72	-866	31	31
97	34	-263	-84	31
-14	62	64	-56	31
-24	61	222	-47	31
-99	68	230	-52	31
-54	143	244	-40	31
-86	123	423	-126	31
-144	30	402	-150	31
-4	1	279	-113	31
-48	-113	30	-67	31
-33	-236	-277	16	31
133	-201	-264	98	31
124	-87	6	147	31
98	-105	119	64	31
79	-157	209	-4	31
85	151	169	43	31
51	703	102	52	31
65	774	227	68	31
52	405	87	104	31
9	161	52	81	31
-5	-244	111	27	31
-116	-305	67	-62	31
-26	14	40	-76	31
63	-503	-55	3	31
67	-869	-38	40	31
-12	-441	4	11	31
-119	-179	-7	8	31
-34	-215	-49	-47	31
-89	-396	-69	-189	31
-36	-229	-16	-206	31
44	249	79	91	31
89	458	154	190	31
172	422	148	-48	31
12	302	82	-54	31
-9	122	32	-113	31
28	-177	29	-157	31
-35	-189	-17	-41	31
-39	-36	-20	196	31
-47	-134	3	290	31
-41	-17	-3	65	31
-66	101	-36	35	31
-105	-44	-51	17	31
9	-70	-40	-5	31
54	11	-51	9	31
-23	6	-3	-12	31
17	-67	5	2	31
11	9	-61	-19	31
-5	87	-130	-4	31
31	102	-142	-1	31
11	182	-76	11	31
-11	365	-14	3	31
73	458	80	-9	31
94	182	164	-17	31
-16	-54	192	-23	31
-51	-175	153	-31	31
-101	-169	47	-49	31
-116	53	7	6	31
-46	87	-12	58	31
-72	115	-34	72	31
-48	109	16	32	31
1	100	44	-19	31
-11	273	-36	-37	31
51	-54	-107	-86	31
64	-498	-86	-80	31
46	-350	-90	95	31
83	-126	-203	103	31
119	-204	-274	66	31
96	-312	-146	226	31
-6	-106	-11	101	31
-36	77	75	-145	31
-32	42	252	-214	31
-56	126	286	-170	31
-46	199	133	-111	31
-21	77	28	-71	31
-35	-44	-74	58	31
-63	-27	-119	107	31
-62	-13	-71	26	31
-67	-68	-35	-4	31
-22	-67	-11	34	31
34	-18	-23	43	31
29	39	-2	34	31
40	50	74	25	31
75	54	103	32	31
61	56	36	152	31
33	24	10	207	31
37	26	-29	25	31
21	32	-86	-31	31
-13	55	-3	16	31
-41	89	84	-128	31
-53	97	199	-164	31
-50	97	133	-129	31
-66	60	74	-124	31
-84	-2	206	-17	31
-48	-47	3	57	31
-19	-47	-234	69	31
11	-29	-273	32	31
67	-11	-204	52	31
111	-1	-123	83	31
76	-6	-150	40	31
44	-2	-29	19	31
73	4	64	25	31
55	4	122	37	31
-7	1	107	28	31
-69	-3	9	3	31
3	-7	-38	-23	31
-18	-3	-60	-15	31
-136	11	-6	-9	31
-42	15	194	11	31
-17	20	528	46	31
-81	19	466	16	31
2	-1	253	1	31
86	-11	-156	36	31
44	-7	-768	36	31
21	-11	-679	-30	31
40	-26	-231	-52	31
32	-36	-111	-72	31
29	-26	-79	-124	31
30	-7	95	-61	31
32	86	340	2	31
4	229	656	-26	31
-48	180	490	10	31
-59	26	147	48	31
-81	-92	-195	29	31
-95	-263	-684	26	31
-54	-214	-592	18	31
-74	1	-192	69	31
-22	26	47	94	31
145	36	92	64	31
1	70	182	24	31
-127	145	168	-60	31
89	333	54	-67	31
67	244	-1	92	31
51	-8	36	194	31
90	-38	179	-41	31
23	66	97	-220	31
56	311	39	-192	31
12	452	2	-124	31
-55	223	22	86	31
-86	11	61	159	31
-10	-59	28	86	31
-10	-368	11	46	31
-25	-890	-15	-1	31
22	-957	92	-41	31
-67	-387	109	-47	31
-13	64	-102	-32	31
102	194	-288	-48	31
128	81	-189	30	31
114	-100	-121	218	31
49	-52	-63	159	31
23	-182	86	-111	31
16	-352	180	-43	31
9	-176	327	124	31
-5	95	317	-7	31
-63	144	189	-77	31
-66	136	75	-74	31
-9	229	4	-51	31
-8	318	-160	-15	31
-18	534	-295	-28	31
-36	604	16	-42	31
-42	346	147	-71	31
3	-86	-144	-68	31
-8	-526	-225	-89	31
-14	-604	-36	-92	31
-10	-335	217	-74	31
47	-116	31	7	31
157	-57	-200	274	31
71	243	148	439	31
20	725	263	290	31
47	667	-194	41	31
-4	290	-498	-345	31
-45	-132	-516	-560	31
-57	-719	-714	-281	31
-36	-716	-655	128	31
-76	-400	486	445	31
-106	-282	1499	260	31
-93	-2	1374	257	31
-56	70	1045	434	31
6	96	78	179	31
2	282	-825	19	31
18	335	-952	-430	31
82	293	-768	-657	31
106	156	-204	-437	31
79	94	267	-206	31
64	82	402	56	31
79	17	232	237	31
92	0	527	430	31
106	-7	746	448	31
17	14	556	376	31
-84	83	200	380	31
-29	103	-718	428	31
-64	77	-2002	245	31
-124	56	-2128	-154	31
-71	15	-601	-509	31
-37	11	530	-703	31
33	48	1443	-653	31
32	38	1674	-407	31
-19	-5	768	-56	31
20	-6	-67	5	31
147	72	-341	-10	31
146	112	-7	44	31
81	46	-37	224	31
150	-39	-510	307	31
4	-174	-461	-47	31
-154	-306	182	-420	31
-69	-259	1052	-305	31
-73	-123	1652	5	31
-85	-94	936	250	31
-57	-82	-809	444	31
-26	81	-2152	323	31
59	257	-2356	255	31
81	162	-1890	-171	31
104	-63	94	-383	31
137	-106	2526	-94	31
105	-99	2100	219	31
14	-142	568	169	31
-34	-111	-52	-836	31
-6	-39	-484	-1034	31
-47	-35	-899	-285	31
-139	-47	-633	665	31
-220	16	-651	879	31
-243	92	-1664	903	31
-206	168	-2359	996	31
-94	277	-1651	450	31
9	368	432	219	31
-39	295	2050	-1130	31
-31	249	2605	-786	31
69	270	1869	315	31
121	-98	236	165	31
96	-398	-1094	108	31
121	-185	-946	-850	31
190	-24	322	-613	31
220	-22	886	81	31
230	-19	1252	-107	31
187	-7	1365	-948	31
197	125	871	-703	31
151	185	525	459	31
15	83	-16	999	31
-139	-22	-651	1697	31
-284	-164	-849	847	31
-359	-295	-896	226	31
-329	-146	-279	937	31
-147	121	-298	-225	31
51	52	-825	-1114	31
130	-137	-904	-677	31
117	-291	-1881	533	31
106	-393	-1438	1515	31
9	-64	-170	429	31
-29	225	1030	-482	31
94	17	2249	-568	31
169	-162	1694	-483	31
55	-301	909	-543	31
-78	-224	418	-322	31
9	164	180	52	31
10	183	679	-272	31
-17	131	953	-677	31
-26	171	965	-823	31
2	91	541	-910	31
100	83	-722	-678	31
49	95	-1087	523	31
84	110	-592	1534	31
36	101	-393	1337	31
-85	103	-199	-52	31
-133	53	-156	-517	31
-184	6	-489	-9	31
-187	47	-1222	-908	31
-182	37	-1461	-1415	31
-109	-19	-841	-412	31
22	-56	-61	1138	31
140	-13	199	1685	31
167	43	521	905	31
199	96	726	-795	31
222	-26	-361	-873	31
171	-265	-1418	-191	31
131	-151	-497	318	31
76	82	1130	1523	31
29	85	1268	747	31
-39	37	1060	716	31
-139	21	619	74	31
-227	51	-147	-844	31
-279	24	-521	-791	31
-269	-96	2	-1718	31
-195	-69	585	-1550	31
-32	16	-1	-745	31
159	5	54	-134	31
220	-31	365	-34	31
146	-61	550	984	31
43	83	-222	1422	31
-69	142	-2534	1180	31
-195	6	-2486	1741	31
-308	19	-169	371	31
-304	49	1359	-388	31
-218	27	1751	204	31
-116	16	847	62	31
54	30	-114	-270	31
187	54	175	-612	31
169	-57	459	-219	31
58	-112	-199	255	31
51	-118	-897	265	31
124	-185	-819	-367	31
174	-158	69	-1202	31
181	-141	348	-1553	31
250	-46	172	-607	31
325	85	1017	-217	31
220	81	998	405	31
76	204	326	2112	31
-128	364	-716	894	31
-310	348	-1544	-583	31
-379	235	781	-1342	31
-365	61	1395	-1386	31
-165	-129	32	389	31
129	-199	412	1031	31
330	-124	-224	1246	31
360	-70	-450	710	31
229	-121	-705	-633	31
81	-198	-920	-1266	31
25	-116	317	-1323	31
49	-14	985	-702	31
174	6	377	726	31
197	19	-365	3321	31
112	12	-262	3682	31
67	64	550	867	31
-4	94	1410	-1054	31
-115	134	57	-2544	31
-272	247	-3164	-1863	31
-269	174	-3711	-443	31
-107	-148	-1535	184	31
-137	-245	-162	1389	31
-180	-54	817	67	31
-17	7	1944	-690	31
57	-14	2291	-264	31
70	-16	1004	-558	31
89	-27	-87	-500	31
11	-27	234	-9	31
-34	-33	297	991	31
-20	-66	534	-102	31
-48	-59	648	-1824	31
-114	-33	283	-420	31
-198	20	-367	752	31
-224	77	-810	845	31
-182	-6	-520	-722	31
-144	-117	-988	-2015	31
-116	-95	-285	-465	31
-156	70	65	685	31
-157	147	-773	2379	31
-95	121	270	1268	31
-43	137	882	-392	31
1	89	946	267	31
-56	25	-2	-104	31
-33	19	-546	871	31
222	1	-117	233	31
429	-27	-136	-740	31
403	-34	140	-459	31
212	-51	-222	-176	31
74	-42	714	822	31
46	-22	1111	870	31
-8	-44	-23	120	31
-32	-62	-469	-356	31
7	-32	403	-172	31
34	-22	1787	-880	31
-13	10	1629	-525	31
22	255	36	581	31
112	454	-2175	562	31
64	255	-2854	-83	31
-25	-5	-1634	-1166	31
-61	-280	-16	-858	31
-56	-472	91	-597	31
-61	-206	57	-121	31
-22	-86	1117	251	31
-9	-82	1503	113	31
-26	84	202	359	31
-54	105	-1684	-207	31
-88	99	-1848	-249	31
-36	-50	-1031	77	31
-88	-165	553	826	31
-139	-148	673	1274	31
-83	-202	623	635	31
-54	-210	1518	644	31
-46	-87	1217	199	31
-34	119	1182	502	31
-28	170	392	942	31
-54	177	-435	-725	31
7	260	-1606	-1241	31
53	222	-1478	-963	31
22	185	358	-1003	31
1	122	799	-466	31
19	26	531	-627	31
36	16	-155	-227	31
21	-6	-546	-22	31
20	11	-122	85	31
-4	29	418	802	31
21	13	-102	314	31
-7	-16	-259	41	31
-82	-59	89	-409	31
4	-44	87	-196	31
79	-17	9	291	31
41	-12	129	200	31
72	-29	423	181	31
129	-41	-44	-330	31
125	-11	-497	-63	31
117	-9	-756	-275	31
125	-15	181	-711	31
90	32	743	-240	31
-26	47	-213	756	31
-33	5	-212	1783	31
0	-9	746	928	31
-12	-16	776	-506	31
-4	-12	-484	-194	31
-55	-4	-1332	682	31
-97	-37	-1384	265	31
-90	-26	195	-430	31
-9	9	739	-288	31
66	25	-180	-284	31
76	57	-705	53	31
50	39	-519	-66	31
73	14	1186	-129	31
96	20	1024	209	31
-50	-6	336	-82	31
-139	-27	230	-16	31
-131	-23	180	-200	31
-105	13	66	-268	31
17	27	-558	-77	31
105	-7	-5	-379	31
82	-15	259	-187	31
77	-19	295	231	31
61	-17	299	71	31
-30	17	19	-17	31
-42	85	-294	429	31
5	240	-366	462	31
78	273	-297	-25	31
117	104	-231	42	31
119	-56	96	-62	31
119	-253	-21	-269	31
71	-405	53	24	31
64	-284	59	74	31
24	-59	11	65	31
7	-14	-64	-16	31
-22	4	-70	-179	31
-113	33	210	-154	31
-79	4	436	8	31
21	38	541	37	31
-9	29	37	-84	31
-140	25	-488	29	31
-77	31	-500	39	31
-7	11	-154	25	31
-62	5	185	-8	31
-27	-8	655	0	31
25	6	877	223	31
1	14	429	487	31
-45	39	-116	243	31
56	39	-994	-264	31
98	24	-1551	-357	31
-59	99	-649	-424	31
-111	260	636	99	31
-47	333	735	197	31
9	138	541	-127	31
-50	-66	257	-73	31
-140	-177	-676	-84	31
-114	-337	-633	-52	31
-58	-285	64	-172	31
-26	-59	95	141	31
9	-12	126	265	31
49	-4	139	164	31
-4	16	169	175	31
-159	13	242	-104	31
-252	188	180	-490	31
-214	352	390	-500	31
-224	237	161	-53	31
-206	-7	-321	224	31
-137	-205	-412	372	31
-103	-350	-609	190	31
-117	-218	-640	40	31
-129	34	-256	107	31
-47	51	-120	82	31
-6	108	-27	150	31
49	275	148	44	31
41	172	396	52	31
99	-262	656	289	31
199	-406	277	165	31
174	-158	-645	-142	31
192	-1	-806	-183	31
164	56	64	-332	31
230	57	465	-132	31
191	110	499	179	31
62	177	428	65	31
127	167	-29	204	31
73	254	-249	52	31
10	176	-131	-54	31
28	-252	-63	-103	31
17	-461	102	-228	31
36	-175	316	-196	31
87	70	205	-221	31
96	54	19	-131	31
56	36	-10	-81	31
84	37	88	179	31
131	42	98	252	31
183	34	104	55	31
184	29	101	35	31
163	21	-54	114	31
110	23	-107	175	31
11	50	-4	95	31
-9	42	19	-12	31
31	77	-55	-63	31
121	170	101	69	31
13	197	80	5	31
-162	74	-21	-295	31
-64	-17	198	-234	31
-54	-29	9	-137	31
-111	-114	155	-71	31
-57	-129	805	102	31
-52	-46	931	62	31
39	19	473	123	31
84	141	-884	231	31
19	280	-1516	276	31
-11	274	-1306	226	31
64	68	-1170	-126	31
121	-317	-711	-363	31
36	-560	-164	-385	31
84	-386	386	-47	31
200	-82	595	274	31
-84	-29	882	97	31
-278	-21	966	180	31
-8	46	836	209	31
-4	24	520	69	31
-30	39	-172	-7	31
-25	81	-367	-194	31
-32	195	-521	-106	31
28	330	-640	-79	31
-176	342	-483	-107	31
-26	179	-163	-79	31
268	-110	166	-84	31
126	-320	98	-137	31
-21	-472	142	-107	31
4	-357	37	170	31
37	-37	-157	186	31
70	29	-161	136	31
31	20	-84	191	31
-100	94	173	11	31
-189	225	184	4	31
-126	427	-72	64	31
-76	368	-11	-57	31
-105	112	280	-22	31
-10	-63	348	-6	31
7	4	451	-37	31
16	345	328	-63	31
69	318	37	-64	31
-32	165	-50	-16	31
-21	-31	-121	-2	31
139	-822	82	1	31
167	-1096	365	-20	31
65	-498	460	-15	31
51	-62	335	-62	31
55	-32	122	-59	31
32	-95	134	-21	31
-72	-78	21	-34	31
-223	-34	-283	-9	31
-159	58	-523	-16	31
6	219	-466	-37	31
131	322	-339	-49	31
8	263	-383	-42	31
3	273	-322	1	31
6	189	-71	47	31
-306	-209	232	82	31
-91	-227	333	120	31
221	72	378	69	31
168	152	252	37	31
99	155	106	214	31
-141	129	80	206	31
-93	96	-79	-47	31
136	72	-289	-151	31
29	19	-574	-151	31
-53	19	-402	7	31
6	46	-10	233	31
-57	44	105	257	31
-34	4	92	128	31
-17	-13	-53	-52	31
-64	126	-215	-98	31
46	244	-578	-93	31
-10	91	-538	-125	31
-17	-131	124	-137	31
111	-351	413	-118	31
247	-488	511	-31	31
170	-310	767	-7	31
127	-101	1008	-17	31
169	52	730	-52	31
-232	430	56	-161	31
-154	704	-416	-236	31
-12	583	-996	-192	31
-255	263	-1228	171	31
-187	-450	-995	466	31
-215	-688	-467	275	31
-185	198	101	262	31
297	603	214	282	31
213	281	108	7	31
-210	-1	279	-77	31
124	-293	525	-139	31
252	-169	357	-9	31
199	421	286	182	31
319	899	139	47	31
79	960	-205	12	31
-69	588	-531	-2	31
-52	-440	-633	-160	31
-157	-1128	-129	-239	31
-207	-643	424	-172	31
-104	-210	933	52	31
215	-315	1022	66	31
248	-611	776	-86	31
-379	-868	464	-36	31
-452	-684	-249	62	31
-116	-181	-575	55	31
-109	-17	-658	143	31
51	-84	-462	268	31
82	-51	-111	-54	31
249	-202	-43	-260	31
263	-250	152	-146	31
-309	-48	427	-122	31
-372	162	557	-84	31
34	306	210	-95	31
-23	397	-25	12	31
-164	302	155	116	31
-220	36	-86	111	31
-348	-213	-556	72	31
-54	-400	-441	34	31
-101	-139	-393	16	31
-90	308	-526	-54	31
-16	480	-178	-129	31
-377	548	172	-254	31
-108	287	317	-319	31
181	-200	191	-76	31
345	-181	-68	243	31
366	-47	-281	391	31
47	-163	-403	552	31
151	-104	-228	322	31
105	-109	86	-85	31
-1	-209	508	-117	31
172	-267	617	-76	31
42	-214	439	-21	31
11	117	472	-1	31
-44	506	403	95	31
-126	744	335	146	31
64	648	93	117	31
-36	325	-258	129	31
3	119	-374	-22	31
-101	147	-431	-204	31
-388	116	-382	-230	31
-104	-10	-525	-312	31
191	8	-276	-292	31
163	50	97	178	31
87	86	193	159	31
200	86	390	-166	31
302	21	252	-132	31
166	37	86	-308	31
-86	170	41	-166	31
-86	248	77	273	31
-35	187	90	243	31
-132	144	137	111	31
-12	52	223	29	31
-8	-201	185	-43	31
91	-480	94	36	31
27	-450	-163	55	31
-137	-212	-309	28	31
261	-296	-342	17	31
138	-401	-109	-57	31
-97	-204	298	-227	31
-95	-6	635	-198	31
-124	62	676	240	31
284	-11	275	480	31
336	-9	-116	162	31
-56	50	-519	-166	31
-237	3	-908	-297	31
-6	3	-885	-6	31
-11	-21	-439	545	31
-185	-149	-397	107	31
-24	-264	-421	-423	31
-4	-299	-310	-82	31
-112	-295	-216	91	31
-185	-224	60	152	31
-1	-28	596	365	31
269	190	1039	459	31
341	403	596	79	31
119	597	438	-206	31
-240	549	164	-252	31
-174	329	-642	-305	31
-54	342	-895	-106	31
-235	348	-606	-71	31
-37	97	-190	-93	31
197	-82	-244	-107	31
104	-327	-49	-56	31
299	-480	307	-29	31
229	-182	436	11	31
124	106	556	67	31
199	230	381	-32	31
30	362	106	8	31
-144	205	-34	122	31
-151	-233	-85	72	31
282	-571	-6	67	31
288	-519	103	178	31
116	-180	101	81	31
34	-15	139	-8	31
-166	113	69	21	31
50	93	21	24	31
-111	-155	214	-142	31
-203	-272	370	-541	31
-108	-353	347	-787	31
-113	-245	199	-365	31
113	65	-397	275	31
-194	328	-631	494	31
-575	370	-91	605	31
-324	117	230	339	31
7	-21	355	102	31
42	30	306	125	31
102	171	147	110	31
302	339	-270	128	31
225	284	-634	-84	31
-63	80	-619	-224	31
-161	-93	-510	-229	31
-144	-47	-280	-49	31
-69	7	-69	-22	31
244	-174	98	-83	31
284	-276	247	-16	31
-47	-281	435	-251	31
179	-204	421	-325	31
363	-115	443	-348	31
-17	-210	502	-150	31
-84	-265	175	451	31
-72	-215	195	530	31
21	-122	437	-51	31
245	62	381	-258	31
72	383	161	131	31
126	670	-267	575	31
159	771	-553	612	31
116	590	-597	118	31
121	173	-267	-108	31
-100	29	78	-193	31
-74	-20	247	-307	31
-173	-84	212	-390	31
-274	-79	-176	-302	31
-260	-129	-502	68	31
2	-95	-453	109	31
187	-129	-417	-123	31
-70	-82	-882	-24	31
-182	14	-919	254	31
-54	-12	-229	354	31
21	-76	648	234	31
16	-95	1255	1	31
189	-6	1418	30	31
248	26	1060	0	31
62	-72	111	-70	31
-413	-222	-570	-70	31
-290	-220	-1039	-54	31
75	-165	-565	232	31
166	-111	696	398	31
265	-43	862	116	31
34	67	383	-344	31
113	198	-475	-584	31
32	62	-1195	-454	31
-206	-45	-1012	154	31
-181	38	-408	297	31
-222	125	127	-31	31
-171	61	-117	190	31
-38	-66	-317	58	31
65	-2	-109	-122	31
17	179	-35	23	31
-11	426	0	19	31
-84	416	-77	50	31
-77	67	179	-111	31
85	-199	714	-230	31
-20	-428	827	-300	31
-173	-473	511	-293	31
-118	-325	664	-513	31
-74	-436	1010	-620	31
-12	-359	908	-171	31
-3	9	615	359	31
32	106	-227	650	31
186	84	-1287	628	31
39	239	-1769	880	31
-268	495	-1386	483	31
-260	483	-398	-110	31
-97	254	148	-54	31
147	-21	355	-97	31
416	-279	396	-6	31
338	-189	182	156	31
296	9	186	-62	31
452	26	75	-211	31
294	1	-27	49	31
-53	18	89	-43	31
-25	41	102	-169	31
111	49	134	-78	31
-2	66	350	-59	31
-130	82	427	-1	31
-209	106	179	-51	31
-127	88	-53	-165	31
-78	18	-194	-282	31
-26	-18	-257	69	31
-148	27	-142	700	31
-247	69	17	417	31
2	51	214	-154	31
-124	12	241	-116	31
79	-11	31	-20	31
394	-14	-4	60	31
79	-97	-132	-34	31
-173	-167	-244	-304	31
-111	-197	82	-338	31
26	-227	251	-106	31
-7	-257	166	61	31
-136	-373	242	16	31
-334	-182	153	-7	31
80	204	-97	-97	31
65	284	-194	-13	31
-221	243	-208	280	31
66	206	-290	199	31
1	166	-430	-223	31
174	55	-307	-470	31
49	14	-160	-297	31
-24	134	-83	119	31
229	112	198	226	31
86	56	470	-40	31
-13	-16	351	-25	31
87	-65	196	309	31
154	-11	426	368	31
-212	-76	329	192	31
-161	-133	-41	40	31
119	-153	-453	-60	31
-72	-128	-992	-191	31
11	5	-948	-215	31
46	25	-264	72	31
-126	3	159	131	31
-42	66	412	-101	31
132	110	496	-47	31
231	265	238	84	31
12	563	50	74	31
-1	551	-69	37	31
167	206	115	-27	31
-157	-131	162	-110	31
-241	-490	592	-89	31
-40	-677	847	272	31
0	-430	110	514	31
47	-146	-441	136	31
-69	-127	-944	-151	31
-112	-2	-947	-59	31
-102	86	-293	-17	31
-284	4	16	67	31
-212	-149	47	-59	31
-94	-204	230	-360	31
-101	23	327	-577	31
-21	52	314	-507	31
218	72	52	-25	31
220	131	-287	558	31
-84	167	-317	836	31
-105	348	-69	319	31
104	346	222	-257	31
275	330	99	45	31
57	263	50	135	31
-79	173	-144	-70	31
-11	83	-134	21	31
-161	-155	233	-69	31
-226	-346	187	-11	31
-22	-396	320	-2	31
107	-305	398	-8	31
-9	-313	313	-2	31
192	-186	259	-89	31
192	22	151	-166	31
58	-87	157	-277	31
1	-142	524	-171	31
-208	-111	739	-274	31
-21	-99	185	-360	31
-66	51	-455	41	31
-92	120	-1396	473	31
74	169	-1526	376	31
196	405	-442	36	31
54	497	79	-2	31
-171	329	72	-91	31
285	145	-144	-141	31
215	-116	-245	96	31
64	-396	-54	254	31
-11	-313	239	112	31
-123	-76	620	-47	31
119	-42	803	-69	31
64	-26	520	31	31
140	3	94	159	31
82	57	-327	74	31
-20	133	-350	83	31
-10	167	74	88	31
-3	168	-200	54	31
-88	2	-604	112	31
-22	-179	-345	27	31
216	-192	-207	-66	31
-72	-19	-132	-266	31
-82	122	285	-275	31
25	129	443	-81	31
-110	87	399	-81	31
-9	-122	265	-29	31
-79	-127	-20	-107	31
-98	257	-250	-172	31
71	482	-263	-36	31
185	360	197	95	31
143	201	636	351	31
-42	-239	658	296	31
-153	-639	292	-87	31
-174	-351	-147	-36	31
-85	-39	-416	61	31
-42	-38	-542	-89	31
-37	-22	-357	-115	31
-121	31	-235	-10	31
-80	34	-106	87	31
42	4	-29	54	31
-76	-13	-14	147	31
-62	-1	116	108	31
-11	44	95	24	31
21	31	173	4	31
9	-16	270	-90	31
-24	32	324	-11	31
5	95	251	48	31
42	57	323	89	31
103	16	302	32	31
100	0	-63	-95	31
111	-28	-215	-177	31
64	-7	-353	-53	31
34	31	-453	157	31
-24	152	-388	-70	31
-101	330	-148	-218	31
-74	190	-14	-104	31
-104	-119	-94	73	31
-162	-254	45	245	31
-143	-304	135	66	31
34	-164	174	-11	31
113	-88	263	-8	31
12	-190	257	-40	31
55	-80	343	-26	31
114	-40	283	-209	31
142	-14	53	-247	31
129	140	-189	-208	31
-12	109	-190	-88	31
-26	0	-34	196	31
-116	-15	-91	459	31
-69	22	-91	488	31
91	64	-124	280	31
34	197	109	-61	31
-44	338	275	-497	31
-139	516	-57	-531	31
-190	485	-347	-255	31
-228	-45	-569	158	31
-76	-396	-546	486	31
116	-420	-34	336	31
58	-545	205	107	31
-2	-484	281	177	31
99	-158	235	400	31
209	11	-253	283	31
114	51	-310	35	31
24	127	-368	-57	31
-37	213	-212	-197	31
-21	339	44	-174	31
-19	396	87	-159	31
-97	261	530	-193	31
-24	116	696	-182	31
82	11	628	-116	31
112	-194	398	-4	31
-26	-213	-129	72	31
31	-144	-559	69	31
51	-348	-393	-52	31
32	-324	-309	-89	31
95	-80	-393	-6	31
77	-8	19	87	31
177	32	129	11	31
61	7	136	-122	31
26	-43	150	-121	31
-6	-16	169	-112	31
-52	30	245	-6	31
-19	63	141	96	31
-60	91	167	113	31
-11	147	16	137	31
-71	175	-136	56	31
-58	140	-83	-11	31
-71	96	-11	-10	31
-77	68	41	13	31
-31	39	73	56	31
-33	19	100	64	31
32	6	194	128	31
32	-10	222	194	31
39	-12	74	169	31
28	-37	-128	-14	31
14	-47	-309	-425	31
64	45	-182	-721	31
52	140	79	-311	31
-31	74	287	337	31
-33	38	463	136	31
-103	54	593	-47	31
-176	-145	498	309	31
-27	-180	194	125	31
42	206	-277	-100	31
-135	617	-586	-99	31
-269	548	-767	-81	31
104	-44	-1010	57	31
-57	-510	-99	-76	31
-379	-624	811	-121	31
114	-472	531	105	31
41	-169	-89	250	31
142	-46	-911	321	31
370	41	-1065	267	31
32	104	-666	-26	31
-22	52	-491	-121	31
17	81	-84	28	31
-149	117	242	40	31
9	108	219	6	31
227	112	303	-74	31
74	41	172	-51	31
62	-119	165	-62	31
-16	-157	274	-43	31
32	-90	211	-4	31
109	-21	287	-77	31
87	22	263	-7	31
145	14	240	-23	31
107	26	214	-11	31
110	17	172	-5	31
86	22	81	-34	31
84	27	28	-1	31
36	17	115	-20	31
-4	31	92	-1	31
-18	25	78	-14	31
-70	22	71	-2	31
-93	16	41	6	31
-124	17	40	6	31
-114	15	19	21	31
-110	7	14	16	31
-91	16	0	24	31
-67	20	-12	14	31
-42	17	-23	16	31
-10	5	-29	8	31
12	5	-28	4	31
35	2	-34	-2	31
36	0	-28	-11	31
40	2	-29	-6	31
26	1	-34	-7	31
11	3	-32	0	31
-4	4	-28	2	31
-22	15	-22	0	31
-45	14	-23	-1	31
-66	4	-26	-4	31
-62	-15	-22	-2	31
-68	-16	-17	4	31
-64	11	-15	10	31
-44	11	-11	17	31
-17	16	-16	17	31
9	3	-21	4	31
46	-2	-24	-17	31
101	20	-32	-22	31
102	25	-26	-4	31
87	24	-21	16	31
79	-43	-4	25	31
54	-152	66	12	31
37	-144	166	-9	31
20	87	259	33	31
-1	393	289	27	31
-32	529	317	-101	31
-50	393	548	-196	31
-49	-198	638	-399	31
-67	-596	280	-436	31
-55	-259	-283	183	31
30	163	-1017	827	31
3	193	-1167	734	31
-121	-144	-754	365	31
37	-411	-276	122	31
162	-436	153	-152	31
24	-221	-268	-242	31
-91	300	-372	-200	31
-248	516	-486	-162	31
-126	19	-599	-403	31
220	-438	159	-400	31
282	-523	102	120	31
31	-225	29	237	31
-162	190	459	269	31
-186	197	532	322	31
-231	260	322	82	31
-192	269	43	-113	31
-62	159	-21	-80	31
42	169	126	-35	31
-90	142	259	-21	31
76	205	91	1	31
340	197	98	-35	31
114	137	197	-6	31
237	59	114	16	31
282	-80	143	0	31
64	-181	116	-15	31
187	-219	97	-16	31
79	-140	89	-12	31
-71	-109	66	-18	31
-2	-142	81	-16	31
-47	-137	69	-25	31
-63	-101	67	-32	31
-73	-39	29	-34	31
-44	7	-49	-26	31
-43	77	-126	-42	31
-52	157	-122	-16	31
21	149	-83	42	31
42	92	37	144	31
64	59	174	209	31
25	71	295	1	31
22	87	314	-109	31
53	26	73	0	31
51	6	-49	-59	31
34	67	-91	-93	31
-17	210	-92	38	31
-39	293	175	101	31
-81	104	586	-43	31
-72	-119	625	-106	31
-85	-343	572	-15	31
-82	-445	474	59	31
-45	-205	-169	250	31
-23	-40	-410	62	31
10	-62	-590	-204	31
54	-19	-1092	-166	31
112	-14	-1132	-156	31
-24	-36	-1217	37	31
-28	-3	-971	186	31
113	11	-410	31	31
97	12	-405	-84	31
27	5	-289	26	31
-72	10	-94	82	31
6	30	-14	131	31
-55	32	304	-122	31
-96	26	518	-387	31
-2	26	566	-215	31
-42	44	593	77	31
-37	60	485	423	31
-78	40	361	464	31
-32	17	235	200	31
21	44	159	-226	31
-66	115	21	-81	31
-176	164	42	304	31
-42	51	317	-31	31
152	-61	328	-119	31
36	-40	134	-12	31
25	-109	13	-44	31
-3	-203	-32	17	31
73	-156	-217	43	31
114	-92	-209	40	31
-274	-41	-44	-86	31
-139	44	65	-131	31
111	120	170	-89	31
-52	114	63	-83	31
-16	75	66	-107	31
78	105	127	-66	31
66	139	134	-1	31
57	270	131	29	31
-43	330	37	42	31
-38	177	-10	162	31
162	227	-37	206	31
188	218	-64	7	31
141	-261	-96	-9	31
149	-556	-86	-14	31
127	-420	-17	-46	31
109	-395	15	-2	31
-11	-300	0	-21	31
-127	-59	-24	-4	31
-86	14	-31	-2	31
-26	86	10	5	31
-21	133	51	6	31
-52	131	36	-2	31
-60	196	13	-27	31
-12	253	17	-26	31
-6	91	66	-3	31
6	-144	80	-17	31
16	54	97	-29	31
40	478	32	-46	31
6	483	-163	14	31
-38	154	-194	97	31
62	-181	-230	39	31
17	-593	-448	-23	31
-64	-649	-335	99	31
-64	-227	26	19	31
-141	29	167	-223	31
-141	112	237	-211	31
6	58	302	19	31
88	-132	275	153	31
-77	-149	145	-26	31
-131	-71	-4	-91	31
49	95	-2	-56	31
-9	220	111	9	31
-59	106	260	144	31
103	-62	284	89	31
66	-131	-9	-16	31
-97	-27	-363	-11	31
66	38	-438	74	31
131	51	-120	153	31
-59	111	192	114	31
17	134	16	-8	31
-60	173	-508	16	31
-97	231	-819	74	31
-50	237	-501	7	31
-15	-46	-169	-74	31
122	-282	87	-119	31
-31	-115	528	-127	31
-1	-29	717	-232	31
103	-159	808	-211	31
132	-170	442	58	31
103	-134	-204	277	31
-22	-72	-400	449	31
1	61	-617	341	31
-17	114	-616	129	31
43	174	18	76	31
38	187	217	-132	31
-24	129	-165	-121	31
-16	102	-247	-41	31
-84	84	-235	-270	31
-114	78	24	-235	31
-118	61	228	-163	31
-77	44	300	-193	31
-19	15	512	-32	31
-64	-12	601	70	31
-52	-24	838	141	31
19	-73	942	212	31
65	-85	481	129	31
147	-35	-306	16	31
138	13	-632	89	31
32	16	-110	25	31
-17	34	237	-59	31
107	273	-129	-6	31
91	583	-459	33	31
-68	407	-842	82	31
-63	-59	-909	-117	31
-170	-400	-393	-319	31
-162	-697	97	-202	31
31	-569	297	165	31
55	-184	146	192	31
-39	-64	115	102	31
-88	9	-92	195	31
4	32	-303	2	31
93	-36	-259	-22	31
97	-82	25	-159	31
52	-102	-17	-254	31
26	-47	-428	-106	31
84	86	-26	-90	31
118	102	266	85	31
48	114	209	263	31
-39	230	300	219	31
22	191	587	-56	31
0	71	917	-161	31
-114	106	620	-137	31
-74	190	38	-182	31
-125	67	-472	131	31
-189	-95	-822	546	31
-65	-355	-754	402	31
17	-544	-267	-39	31
11	-267	175	-138	31
59	-4	410	-96	31
124	108	405	-77	31
102	216	372	-44	31
77	132	254	-41	31
39	81	-141	-41	31
26	140	-230	-39	31
31	177	-172	27	31
-60	200	-132	106	31
-108	124	-17	36	31
-65	88	116	-32	31
-18	72	134	2	31
-4	58	131	-42	31
16	113	129	-27	31
20	157	62	-17	31
-4	180	50	-25	31
-29	134	-35	-16	31
-18	133	-122	-34	31
139	62	-170	-14	31
177	-285	-51	-8	31
34	-536	65	-1	31
24	-418	61	-10	31
4	-189	19	-4	31
146	-69	-49	14	31
263	-29	0	-1	31
-17	-22	-32	-1	31
-28	-14	-72	17	31
60	13	-4	14	31
-68	25	117	-2	31
-30	39	211	-1	31
8	42	199	-4	31
-17	29	136	-3	31
-21	12	64	7	31
-2	5	32	27	31
57	23	0	43	31
65	29	-74	37	31
12	44	-129	29	31
20	60	-46	13	31
52	97	-17	-26	31
92	150	-62	-52	31
126	-38	-22	-87	31
27	-298	79	-147	31
-119	-191	216	-153	31
-175	76	244	-27	31
-97	248	187	126	31
-58	417	-105	77	31
-108	446	-305	-26	31
-82	194	207	162	31
-64	-188	575	371	31
-72	-530	57	228	31
-50	-489	-572	56	31
-39	27	-1181	91	31
56	244	-1372	178	31
128	63	-496	77	31
91	39	219	-202	31
46	39	448	-285	31
31	-19	565	-201	31
11	29	385	-57	31
12	129	82	5	31
9	-17	-237	-91	31
-84	-246	-277	-139	31
-84	-233	-111	-123	31
-57	-86	-56	66	31
-79	-58	17	214	31
-49	-111	75	109	31
-34	-142	148	51	31
6	-134	237	14	31
57	70	208	-52	31
22	222	214	-49	31
22	213	165	-42	31
73	178	89	6	31
67	254	168	43	31
47	144	610	-19	31
30	-380	873	-86	31
3	-500	495	-77	31
-64	-156	27	-67	31
-47	4	-741	-69	31
15	19	-1037	4	31
-61	65	-492	57	31
-59	69	-276	54	31
9	56	-391	94	31
-37	77	-447	186	31
-111	105	-81	231	31
-49	141	179	84	31
49	123	89	2	31
42	116	180	26	31
57	106	169	17	31
10	64	159	50	31
-14	59	200	15	31
51	51	153	-58	31
76	174	152	-182	31
28	377	167	-232	31
-57	265	140	-152	31
-68	-32	64	-91	31
-77	-263	13	32	31
-116	-443	-24	202	31
-111	-252	-35	239	31
-41	36	12	65	31
6	258	42	-21	31
82	571	68	-37	31
136	375	115	-101	31
-31	39	88	-129	31
-116	-300	1	-102	31
79	-823	28	133	31
181	-626	136	199	31
60	-146	143	66	31
61	-77	27	54	31
94	11	-112	19	31
30	112	-217	-27	31
-2	134	-294	-39	31
-79	161	-274	-47	31
-101	237	-127	-50	31
48	543	114	1	31
93	762	246	84	31
-85	608	190	83	31
-31	220	82	-46	31
66	-293	-62	-128	31
56	-795	-189	-51	31
54	-1123	-255	64	31
21	-696	-207	90	31
134	-4	-77	-57	31
65	31	22	-26	31
22	-94	84	71	31
43	-216	77	-62	31
-47	-273	56	-126	31
-41	-33	-14	-97	31
-120	96	-82	63	31
-127	179	21	108	31
-106	347	139	27	31
-107	347	131	67	31
-97	330	104	22	31
-101	370	82	50	31
-37	416	35	86	31
19	108	-23	67	31
32	-375	-131	77	31
22	-336	-142	39	31
69	7	-62	-37	31
93	466	16	-54	31
105	610	56	26	31
85	427	71	-106	31
129	200	78	-222	31
135	-428	-27	-161	31
-116	-736	-44	-130	31
-187	-640	32	14	31
-145	-650	80	152	31
-195	-496	64	53	31
-139	-108	-19	-39	31
-70	119	-71	-29	31
-3	64	-81	-28	31
86	224	-49	65	31
124	430	-30	137	31
161	457	7	42	31
122	255	126	-99	31
34	-33	191	-209	31
72	-279	174	-339	31
151	-305	142	-207	31
67	-13	46	69	31
15	37	-106	76	31
27	89	-201	220	31
-81	242	-247	540	31
-92	486	-187	448	31
-74	418	-21	116	31
-67	-205	54	279	31
-101	-398	106	287	31
-103	-336	-169	-17	31
-17	-322	-600	-89	31
-8	-273	-322	-202	31
39	-163	242	-159	31
35	46	325	-37	31
67	43	257	216	31
114	52	285	324	31
74	87	282	21	31
30	110	161	-184	31
31	184	82	-293	31
8	147	220	-395	31
-47	125	211	-506	31
-43	107	264	-675	31
-78	98	239	-733	31
-96	72	12	-665	31
-116	37	-46	-341	31
-89	51	-146	409	31
-55	40	-343	1109	31
-64	27	-408	1782	31
6	-13	-365	1465	31
67	-51	-474	-284	31
72	-44	-42	-675	31
60	-26	373	-265	31
76	1	109	-233	31
41	44	-313	84	31
-10	76	-483	14	31
-6	102	-182	36	31
-29	132	-142	61	31
-53	109	26	-5	31
-70	48	315	-63	31
-74	-52	428	-224	31
-64	-177	425	-189	31
-44	-226	294	-220	31
-16	-214	305	-180	31
5	-168	0	149	31
27	-95	-137	84	31
6	-38	-43	-341	31
29	109	-152	-242	31
174	425	-340	141	31
174	532	-403	136	31
80	427	-127	-106	31
99	525	28	-113	31
56	555	30	67	31
24	393	-54	63	31
8	74	-93	89	31
-16	-597	-36	112	31
-5	-966	87	-11	31
-27	-592	185	-177	31
-12	-99	12	-207	31
1	97	-43	-1	31
4	69	259	104	31
-3	-374	418	246	31
9	-815	219	354	31
18	-420	54	362	31
31	95	91	550	31
119	172	248	496	31
122	338	257	-184	31
67	695	155	-661	31
47	824	54	-307	31
-9	653	19	-161	31
-41	670	-150	-337	31
-49	666	-368	-212	31
-92	39	-603	39	31
-97	-910	-689	66	31
-82	-1307	-453	75	31
-107	-1401	-211	159	31
-119	-1517	695	104	31
-29	-820	1416	-15	31
51	82	1297	-96	31
21	291	916	53	31
21	322	238	49	31
29	311	-136	169	31
34	138	-736	269	31
45	-26	-1438	-182	31
39	20	-1173	-380	31
46	273	-620	-270	31
23	476	-300	-124	31
-6	401	-151	79	31
-41	108	156	148	31
-47	-221	336	132	31
-27	-410	289	-172	31
-39	-292	215	-642	31
-21	-91	202	-695	31
0	117	315	-532	31
34	337	-7	4	31
40	357	-402	763	31
27	107	-495	1017	31
106	-1	-259	857	31
92	327	107	786	31
54	383	520	722	31
78	150	353	257	31
74	61	-344	211	31
55	3	-126	-99	31
-17	19	405	-548	31
-31	71	508	-104	31
-51	180	211	-57	31
-93	250	18	-149	31
-95	134	142	-112	31
-67	-81	-146	510	31
-76	-209	-448	567	31
-100	-178	-349	-1043	31
-34	-47	-443	-1331	31
-32	107	-947	-1068	31
47	226	-671	-760	31
115	369	570	931	31
22	359	1937	883	31
34	295	1729	390	31
49	110	510	895	31
14	-388	-341	783	31
14	-538	-946	622	31
-7	-361	-627	-110	31
-30	-266	-500	-429	31
-66	-234	-455	-400	31
-66	-237	74	-763	31
-42	-162	666	-868	31
-57	-76	712	-794	31
-39	83	-361	-618	31
-24	268	-1787	-690	31
-9	214	-1553	-466	31
59	93	168	663	31
107	131	1694	1513	31
105	99	2508	674	31
129	45	1746	73	31
135	17	470	309	31
100	-59	-745	99	31
104	-26	-1617	-60	31
96	2	-2416	-478	31
19	87	-2582	-752	31
-96	170	-819	-440	31
-138	94	349	450	31
-102	27	649	974	31
-112	-83	1203	151	31
-64	-169	1406	-40	31
27	81	775	7	31
22	485	708	-504	31
47	363	675	-232	31
49	-109	-257	-368	31
47	-594	-59	-364	31
64	-865	157	116	31
27	-463	260	159	31
34	-193	-86	961	31
69	-136	-968	863	31
45	179	124	-342	31
-27	252	1340	-418	31
-34	157	661	87	31
-65	20	270	262	31
-89	29	-186	729	31
-58	104	-1013	212	31
-62	-83	-491	-581	31
14	-219	-854	-738	31
51	-86	-946	-1518	31
-23	258	-166	-918	31
-67	481	71	-106	31
-100	432	442	761	31
-132	322	-284	1114	31
-131	40	117	132	31
-56	-478	1484	-199	31
55	-533	1541	314	31
122	-114	610	1387	31
98	35	-766	1740	31
-51	67	-1211	1999	31
-162	150	-984	-63	31
-120	131	-1549	-2827	31
-71	105	-1583	-3117	31
-31	33	-396	-2175	31
54	9	153	279	31
119	59	328	1812	31
136	122	254	1007	31
165	142	862	-402	31
194	26	1758	-283	31
172	-8	1430	730	31
127	1	869	864	31
74	-22	-312	692	31
47	-34	-2075	683	31
-32	-88	-1862	-23	31
-57	-51	-569	-600	31
-44	30	-211	-801	31
-171	120	699	-870	31
-258	100	1689	-122	31
-266	-222	1290	171	31
-233	-321	860	-95	31
-213	-74	1521	-113	31
-140	4	182	-140	31
-9	-41	-1290	86	31
83	-42	-1793	878	31
227	-16	-2648	831	31
257	32	-638	468	31
188	98	989	-160	31
87	96	1797	-1176	31
-104	-23	1939	-1561	31
-166	-127	894	-1582	31
-164	-126	239	182	31
-207	-52	-886	1357	31
-165	31	-1320	777	31
25	87	-1158	-79	31
289	155	-347	-692	31
310	181	135	411	31
196	152	30	1372	31
190	149	298	333	31
149	105	245	-749	31
131	29	-365	-687	31
99	-48	-392	-383	31
37	-126	447	537	31
57	-136	1373	853	31
66	-106	1368	324	31
61	-124	388	567	31
31	21	-843	722	31
35	321	-1536	-249	31
89	280	-1406	-691	31
64	89	-513	-122	31
13	-35	1078	257	31
-81	-333	1313	456	31
-151	-342	289	159	31
-138	29	-91	146	31
-121	332	1713	-219	31
-202	330	2001	-908	31
-315	76	-126	-776	31
-314	-155	-1812	-334	31
-292	-149	-3078	-467	31
-65	222	-1923	-804	31
249	157	-253	395	31
333	-205	611	18	31
282	-362	157	-1116	31
304	-510	-389	117	31
316	-179	1024	787	31
161	-57	1062	1194	31
56	-101	423	1154	31
-102	17	654	308	31
-228	-36	623	26	31
-250	24	125	-67	31
-217	-13	-662	96	31
-84	36	-1292	-409	31
-101	109	-164	-395	31
-153	60	1262	270	31
-107	47	322	-401	31
-35	62	-320	-622	31
-17	119	225	-181	31
-6	77	587	-356	31
-27	41	376	41	31
-59	37	-377	434	31
17	59	-1196	362	31
34	43	-1262	141	31
1	-27	-99	-273	31
-44	9	1102	-527	31
-17	46	393	-660	31
-16	26	-763	-185	31
-199	69	-906	-226	31
-321	73	4	-96	31
-171	30	696	424	31
96	51	29	483	31
198	37	165	784	31
189	27	225	526	31
169	-6	251	756	31
157	-46	296	405	31
131	-35	-295	-255	31
69	-35	-838	570	31
43	-16	-754	641	31
5	-4	400	-187	31
-61	7	794	-1029	31
-47	22	403	-501	31
-61	19	81	-292	31
-57	17	470	-565	31
16	4	415	-66	31
-101	-4	-170	-181	31
-166	-31	-220	-21	31
-140	-91	-9	-104	31
-152	-129	912	-91	31
-59	-91	1059	194	31
1	-12	341	328	31
101	100	-930	259	31
129	157	-1532	142	31
117	81	-660	182	31
176	47	-702	-92	31
166	48	-1340	-386	31
83	9	-234	-580	31
-72	-6	1290	1	31
-62	-24	1253	554	31
2	30	559	530	31
-32	207	-400	73	31
-57	100	-543	-308	31
-113	-209	-267	223	31
-167	-163	-60	320	31
-155	-6	-36	-123	31
-155	35	-166	70	31
-129	11	539	-19	31
45	-36	393	-419	31
220	-13	84	-30	31
343	8	340	-338	31
342	38	755	-242	31
284	28	824	320	31
279	-7	-353	382	31
127	10	-1071	1011	31
9	12	-294	391	31
52	-14	-42	-573	31
32	-34	-280	-497	31
-127	-25	420	-384	31
-204	-26	280	-180	31
-131	-24	349	-116	31
-92	-17	178	42	31
-69	-7	-586	164	31
-21	24	-566	-44	31
42	4	-207	-617	31
59	-30	346	-996	31
54	-7	265	-708	31
98	44	97	440	31
114	75	-435	2069	31
49	101	-341	1481	31
-42	44	220	-287	31
-34	-54	-430	-324	31
44	-48	-818	-90	31
20	-60	-17	-224	31
-28	-51	794	-430	31
-62	-20	36	-775	31
-132	-6	-325	-259	31
-89	34	221	563	31
-63	-11	-38	280	31
-51	-19	-364	173	31
6	111	112	784	31
27	235	383	32	31
51	349	11	-523	31
29	337	350	-441	31
17	-59	473	-647	31
38	-548	852	118	31
6	-553	699	1179	31
-6	-182	-233	1290	31
8	56	-701	102	31
-76	80	-945	-776	31
-119	34	-418	-472	31
-79	-4	-86	-313	31
-112	12	176	-332	31
-163	26	46	-126	31
-147	3	-356	-126	31
-67	7	-457	-280	31
-4	66	203	-42	31
37	288	1040	487	31
62	588	562	352	31
57	528	143	-73	31
92	136	18	-39	31
167	-306	174	-176	31
191	-707	355	-252	31
194	-647	241	-328	31
173	-180	-145	-434	31
46	-59	-424	-311	31
-42	-62	4	94	31
-87	15	313	669	31
-93	-9	3	810	31
-31	52	-528	662	31
2	52	-400	662	31
-11	50	-66	385	31
-89	68	132	-840	31
-171	61	-211	-1221	31
-270	89	-857	-275	31
-354	65	-645	210	31
-237	99	-117	-119	31
-76	177	275	-465	31
-104	224	437	-40	31
-116	181	561	255	31
-46	80	1393	93	31
2	-40	1130	112	31
24	-168	-880	324	31
15	-174	-1207	478	31
16	-109	115	372	31
36	21	661	139	31
40	122	255	-92	31
-7	80	-583	-341	31
30	36	-783	-92	31
95	-60	-355	-137	31
75	-160	-183	-357	31
117	-124	-215	-213	31
155	-24	-23	-72	31
158	58	58	310	31
204	63	80	-81	31
179	66	129	-200	31
106	19	93	70	31
101	-69	148	-3	31
105	-71	151	77	31
85	-51	167	15	31
41	-12	94	44	31
40	15	9	-2	31
20	17	-56	-72	31
-59	49	-21	-46	31
9	63	67	102	31
84	30	45	52	31
80	-9	74	-37	31
97	6	176	173	31
112	17	497	258	31
121	20	663	255	31
70	25	327	116	31
80	-2	-232	24	31
103	157	-794	34	31
76	363	-707	-47	31
79	8	-67	-91	31
63	-441	217	-94	31
17	-245	-34	-150	31
-24	37	-394	-89	31
-30	91	-195	88	31
-136	154	149	162	31
-169	303	118	-12	31
-51	468	-390	-243	31
-54	516	-442	-112	31
-36	323	673	146	31
-65	-196	881	322	31
-118	-508	376	440	31
-74	-326	236	347	31
-67	82	-30	-73	31
41	288	49	-279	31
81	-106	-157	-142	31
-54	-832	-356	-140	31
-15	-1056	-314	-283	31
-24	-435	-245	-340	31
-95	52	92	-101	31
-58	-20	348	-89	31
-68	-22	519	-137	31
-44	-16	363	-93	31
-6	-12	244	-135	31
44	72	138	4	31
-8	187	-143	134	31
-12	330	-453	144	31
120	299	-654	107	31
176	219	-554	175	31
215	95	-506	196	31
96	-88	-360	177	31
-42	-116	-46	94	31
-62	42	126	-6	31
-49	250	171	-32	31
-21	291	164	-72	31
-19	217	222	174	31
30	45	252	310	31
9	-167	179	-62	31
-76	-169	-9	-227	31
-70	-65	-94	-27	31
-51	33	-49	16	31
-35	77	-279	-107	31
-89	55	-449	-235	31
-104	42	-413	-301	31
-9	-27	341	-327	31
106	11	1115	-186	31
210	167	729	-3	31
97	82	237	272	31
5	-89	-203	372	31
139	-24	-347	239	31
37	68	-189	364	31
-46	72	-163	159	31
60	-15	64	-52	31
39	-175	247	135	31
77	-129	280	100	31
1	26	12	11	31
-96	54	-266	-32	31
-96	27	-189	-52	31
-90	-87	-116	-75	31
-7	-130	14	-133	31
32	-36	467	-135	31
72	46	540	-112	31
71	270	166	-55	31
87	845	-102	-27	31
79	1043	-274	-41	31
60	322	-375	48	31
94	-204	-616	151	31
104	-727	-702	50	31
74	-1474	-436	-29	31
-88	-945	-47	24	31
-232	-77	267	25	31
-145	11	511	-12	31
1	265	744	-106	31
-94	480	553	-156	31
-33	381	42	-102	31
53	255	-111	39	31
-11	-7	-232	202	31
51	-303	-546	137	31
122	-189	-350	-18	31
197	280	262	-77	31
-9	257	1049	-134	31
-82	32	1600	-188	31
63	-121	1102	-176	31
-27	-328	257	-92	31
-44	-235	-578	17	31
19	-52	-1493	176	31
25	360	-1670	211	31
-112	769	-1336	167	31
23	632	-789	141	31
146	87	-403	62	31
37	-488	-156	45	31
49	-461	213	-29	31
-58	223	346	-51	31
2	993	523	-43	31
-69	869	467	-50	31
46	10	242	-120	31
194	-64	249	-146	31
-4	-395	204	191	31
-37	-897	5	246	31
-103	-711	32	-11	31
-54	-1336	-81	-52	31
-58	-1466	-501	-87	31
144	-369	-265	-95	31
-41	259	210	-43	31
-299	90	355	81	31
97	6	169	177	31
11	172	121	-49	31
-51	263	401	-263	31
-41	534	486	-232	31
-61	601	404	47	31
9	350	329	412	31
0	57	295	272	31
-74	29	21	-37	31
-400	2	-230	-179	31
-367	-218	-403	-305	31
29	-458	-503	78	31
214	-807	-297	335	31
170	-179	-82	119	31
202	1000	200	29	31
61	1311	433	-59	31
-33	951	357	-87	31
189	496	111	-62	31
18	387	-134	31	31
-217	122	-449	94	31
-2	-486	-543	4	31
16	-970	-210	-24	31
-242	-1470	175	-71	31
-55	-1431	74	-213	31
162	-513	-341	-112	31
-36	-22	-472	171	31
-104	-47	-376	147	31
-24	178	-61	-134	31
-29	232	461	-139	31
-428	301	824	-26	31
-530	428	919	-30	31
-122	414	824	61	31
21	385	370	176	31
184	272	-21	243	31
149	268	-179	161	31
45	254	-584	128	31
145	83	-566	67	31
127	-202	-351	-32	31
-52	-210	-350	-31	31
-66	-2	-73	-61	31
123	138	47	-70	31
2	414	132	-71	31
-96	274	221	28	31
127	2	227	64	31
205	124	295	-75	31
22	53	74	-140	31
159	125	-165	-154	31
177	275	-317	-194	31
-239	-77	-392	-178	31
-462	-183	-146	-112	31
-94	-190	-11	-57	31
484	-378	86	-47	31
-11	-255	84	-22	31
-641	-87	-17	46	31
-791	-16	4	95	31
-698	-35	-170	163	31
36	-6	-146	264	31
450	116	172	209	31
197	134	342	94	31
-263	147	245	87	31
104	91	173	-44	31
551	-57	131	-253	31
207	-180	-199	-155	31
207	-163	-493	135	31
242	-33	-431	349	31
147	-41	-171	275	31
170	-96	297	-46	31
36	-15	786	-187	31
-179	252	877	-287	31
17	712	584	-77	31
171	828	11	273	31
72	238	-378	164	31
71	-554	-574	154	31
-181	-766	-685	113	31
-32	-382	-297	-119	31
212	-34	-215	-182	31
80	219	-426	-66	31
279	244	-194	12	31
252	147	-48	-112	31
-248	323	-81	-211	31
-468	197	-165	-27	31
-435	-178	-139	53	31
56	-104	-1	-81	31
560	96	322	-29	31
115	74	578	71	31
-187	23	546	179	31
-153	39	432	102	31
-11	-99	87	44	31
121	-372	-76	47	31
-88	-173	42	26	31
-66	436	92	132	31
-45	825	-161	43	31
-75	760	-320	-77	31
123	-263	-174	-202	31
367	-1757	-242	-299	31
365	-1768	-240	-321	31
282	-711	72	-256	31
162	-88	469	-62	31
178	451	643	149	31
207	719	608	430	31
-304	285	190	198	31
-245	-310	-343	115	31
161	-576	-416	380	31
-100	-310	-291	269	31
128	370	-359	212	31
239	1116	-433	150	31
-228	1531	-351	195	31
-526	1276	-414	-66	31
-205	586	-282	-410	31
97	-75	-115	-275	31
-262	-640	269	-44	31
224	-1030	596	-285	31
359	-832	285	-605	31
-196	-170	71	-229	31
-300	79	-127	334	31
-309	-13	-338	585	31
-197	109	-129	137	31
-33	406	403	-62	31
41	955	666	6	31
-231	1484	517	-77	31
-399	1206	417	36	31
-429	62	225	-16	31
-222	-1098	56	-18	31
115	-1712	62	-169	31
262	-1494	-46	-294	31
678	-1224	-277	-211	31
671	-973	-351	136	31
225	-254	1	452	31
134	-29	120	172	31
73	111	-131	77	31
286	79	-312	25	31
252	-103	-473	-202	31
-74	69	-581	-191	31
54	39	-428	-97	31
16	-6	-189	-31	31
159	-42	-234	144	31
-194	83	24	314	31
-532	316	346	155	31
14	597	297	61	31
313	952	296	-84	31
304	920	468	-219	31
-69	422	568	-56	31
-7	-48	21	-36	31
251	-151	-272	-264	31
-47	-485	-102	-114	31
-184	-736	48	203	31
17	-298	435	-96	31
222	62	874	-53	31
83	42	1055	141	31
-82	67	614	6	31
-255	328	51	46	31
-317	641	-752	122	31
-74	573	-1476	167	31
-46	209	-1150	19	31
-107	-26	-270	-54	31
-194	-227	196	-98	31
-275	-235	184	-86	31
-270	-81	405	-87	31
18	-207	734	-106	31
167	-184	791	0	31
118	-191	484	-104	31
320	-221	237	-85	31
282	99	201	2	31
142	242	103	169	31
41	300	-375	344	31
-26	224	-1233	139	31
-59	-60	-1792	-68	31
-174	-145	-1525	-72	31
22	-36	-798	47	31
231	33	157	232	31
-262	5	993	323	31
-625	2	955	149	31
-79	-29	794	46	31
124	-19	400	-335	31
167	-22	-209	-678	31
118	22	-555	-32	31
-308	190	-673	354	31
70	377	-258	278	31
91	472	157	401	31
-36	395	518	219	31
249	532	585	-46	31
162	603	265	-157	31
267	345	-162	-130	31
277	-21	-493	-124	31
176	-822	-434	-132	31
56	-1483	-185	-29	31
-302	-1133	190	-1	31
-272	-539	361	48	31
-206	-270	314	-31	31
45	-158	582	-144	31
520	-144	726	-201	31
378	-140	439	-195	31
339	-260	247	-6	31
-19	-290	121	46	31
-859	-199	-346	2	31
-1001	72	-376	-104	31
-396	401	-57	-189	31
78	468	-31	-105	31
166	510	29	166	31
231	442	-435	292	31
154	475	-643	150	31
73	669	-394	188	31
-11	605	-275	71	31
47	292	-86	-77	31
159	-77	-91	-106	31
204	-324	95	-99	31
397	-223	207	119	31
291	126	230	318	31
146	178	111	233	31
99	-77	-81	-268	31
-240	-447	-82	-513	31
-284	-448	-97	-106	31
-105	-98	217	330	31
-114	64	820	198	31
-132	200	932	-34	31
94	-86	442	-71	31
280	-414	-77	-250	31
109	-305	-443	-166	31
134	-225	-200	-109	31
262	-124	312	-30	31
7	12	333	179	31
-425	109	97	115	31
-481	79	-189	32	31
-405	16	-392	70	31
-253	-72	-322	121	31
200	-164	-4	24	31
349	-72	-157	-20	31
195	172	-230	-156	31
71	478	290	-247	31
-205	573	343	-208	31
-210	437	-87	-104	31
62	372	-645	317	31
156	410	-806	645	31
207	299	-641	409	31
-64	-88	-512	209	31
-299	-416	22	270	31
107	-478	365	12	31
107	-423	284	-60	31
-199	-139	476	-96	31
217	-34	583	-181	31
269	-134	624	-184	31
190	-41	395	-253	31
162	118	-309	-297	31
0	325	-623	-544	31
126	312	-470	-602	31
102	11	31	-532	31
38	-410	330	-177	31
-52	-499	-2	705	31
-117	-307	-192	1182	31
-393	-275	-283	802	31
-380	-172	-336	349	31
-238	-14	-113	22	31
-306	107	98	-363	31
-84	124	72	-267	31
28	72	6	122	31
96	27	159	174	31
85	61	214	-66	31
186	107	304	-310	31
210	130	410	-450	31
207	251	412	-244	31
170	293	436	-222	31
-17	199	381	-413	31
-21	3	152	-613	31
-72	-46	-122	-807	31
169	-12	-103	-583	31
-57	-115	-239	-57	31
-397	-102	-623	998	31
-200	-52	-439	1835	31
-407	152	277	1425	31
-108	749	393	738	31
71	1123	-242	708	31
-189	734	-521	112	31
110	-28	-706	-155	31
109	-968	-641	254	31
20	-1568	40	-216	31
49	-954	458	-400	31
194	-282	579	-465	31
233	-219	670	-633	31
-47	-24	538	-606	31
6	136	208	-650	31
232	192	91	-131	31
55	277	33	567	31
-391	198	48	638	31
-167	16	244	51	31
19	-96	-16	-267	31
-211	-179	-475	-352	31
-69	-229	-839	-285	31
-97	-173	-985	114	31
24	-1	-739	78	31
198	163	-199	-114	31
85	231	439	-112	31
35	273	581	62	31
-34	267	538	157	31
109	269	249	-165	31
187	307	-21	-346	31
157	184	-164	-74	31
301	-58	-254	-227	31
270	-108	60	-379	31
-111	-19	237	-70	31
-147	19	239	96	31
-37	71	127	354	31
-249	145	392	349	31
-107	170	370	41	31
-107	287	84	-238	31
-61	475	159	-267	31
169	455	-440	-61	31
111	320	-799	111	31
17	124	-485	90	31
159	-353	-214	86	31
179	-971	-168	454	31
-362	-990	-164	307	31
16	-496	76	123	31
178	-225	246	82	31
-342	81	330	-164	31
-184	258	279	-52	31
-197	281	242	-59	31
131	289	215	-65	31
157	-132	188	-91	31
-62	-442	169	-109	31
-43	-249	74	-111	31
-188	1	11	-115	31
27	67	67	-37	31
42	-52	178	-79	31
126	-302	140	-112	31
304	-259	171	-89	31
196	-27	184	37	31
11	72	9	189	31
2	249	-309	255	31
88	428	-262	211	31
64	638	-12	191	31
-100	763	67	-1	31
-110	623	461	-204	31
31	393	533	-361	31
-331	56	164	-174	31
-154	-139	-289	541	31
107	-155	-778	365	31
-167	-324	-1112	-186	31
220	-652	-854	-31	31
196	-933	-190	117	31
-124	-717	-179	229	31
145	-193	26	381	31
39	19	363	267	31
-205	88	343	129	31
101	118	438	-44	31
145	112	303	-305	31
7	152	17	-104	31
82	69	-295	71	31
135	-32	-203	-47	31
268	-46	-133	-358	31
179	19	-217	-635	31
82	94	-15	-448	31
-204	59	129	-324	31
-440	-5	154	-183	31
-199	11	93	192	31
-61	125	32	525	31
-103	197	75	505	31
-172	257	168	367	31
89	274	152	120	31
257	136	106	-129	31
135	91	94	-84	31
158	133	63	119	31
43	106	21	267	31
-22	61	9	60	31
-26	-11	26	-20	31
-79	-64	34	-7	31
-40	-21	48	-58	31
-57	-43	40	-27	31
-67	-84	42	-61	31
-67	-34	26	-52	31
-64	37	31	-68	31
-54	112	74	-38	31
-61	-46	108	-83	31
-12	-370	306	-202	31
46	-388	768	-189	31
99	-170	1134	-146	31
86	-46	1140	-110	31
13	72	776	2	31
13	187	-188	103	31
-9	120	-1188	62	31
-99	50	-1794	103	31
-22	235	-1756	234	31
-48	547	-714	51	31
-310	624	-40	-328	31
-219	682	393	-483	31
-55	634	644	143	31
-77	-392	-443	1134	31
-21	-1284	-1284	813	31
194	-1017	-1137	44	31
228	-367	-691	-429	31
91	129	40	-937	31
42	-112	959	-472	31
-157	-446	1024	414	31
-77	-300	120	381	31
31	-32	-37	-188	31
-6	164	219	-62	31
138	32	177	-57	31
342	-31	12	-159	31
252	56	-170	41	31
214	122	-114	97	31
57	95	105	276	31
-266	35	325	236	31
29	81	383	116	31
-151	64	250	-25	31
-55	82	219	-40	31
276	72	174	-31	31
-135	62	94	-56	31
-302	81	258	5	31
-108	65	292	-26	31
154	75	202	-14	31
91	55	139	-28	31
276	52	-8	-11	31
262	47	-140	-33	31
51	43	-59	-27	31
82	41	45	-9	31
-41	35	9	-13	31
87	33	20	12	31
-40	4	-3	-4	31
-148	0	8	-7	31
-107	-5	77	-26	31
-99	-21	126	-49	31
-34	-14	46	-48	31
-61	6	-65	-24	31
16	16	-83	1	31
14	31	-155	18	31
69	44	-143	-3	31
76	32	-122	-5	31
11	16	-99	2	31
13	19	-60	-4	31
-4	24	-67	-6	31
-24	9	-27	-7	31
-61	14	38	22	31
-83	17	136	15	31
-106	-1	222	16	31
-100	32	529	23	31
-106	59	716	17	31
-89	89	323	7	31
-59	46	-27	-81	31
-33	-104	-385	-166	31
-1	-204	-909	-192	31
32	-177	-688	-89	31
67	-37	-322	129	31
49	25	-414	165	31
77	-9	-109	122	31
82	18	36	237	31
45	111	-71	111	31
39	135	-52	-94	31
20	175	-247	-161	31
-13	453	-291	-124	31
-41	621	-335	249	31
-18	535	-258	389	31
-39	62	217	59	31
-67	-960	622	-121	31
-37	-1304	612	51	31
-1	-458	237	67	31
54	343	90	-106	31
51	691	204	-95	31
42	480	136	-76	31
166	-317	12	-132	31
113	-681	91	-61	31
-152	-711	-1	63	31
-220	-472	-215	48	31
106	4	-177	-73	31
-7	161	-93	-38	31
-248	259	-16	3	31
391	112	108	52	31
175	119	141	92	31
-372	166	83	-24	31
-122	113	104	74	31
-269	255	92	81	31
-330	270	64	41	31
-31	356	51	34	31
-79	128	36	-9	31
-132	-172	71	-4	31
325	-183	102	-91	31
519	-190	109	-70	31
284	-150	-12	-12	31
196	-136	-11	-17	31
156	50	1	-14	31
156	135	-142	-17	31
165	54	-167	-25	31
84	81	-33	-22	31
7	56	227	-47	31
13	44	209	-28	31
-33	32	44	34	31
-56	60	-73	31	31
-31	117	-124	53	31
-117	106	56	74	31
-135	72	64	91	31
-72	-1	-36	79	31
-9	-116	-159	-17	31
69	-195	-129	-27	31
109	-99	86	-2	31
111	15	57	23	31
42	-3	-82	20	31
1	-12	-164	-34	31
-16	6	-24	-52	31
-84	26	585	-94	31
-81	31	1248	-126	31
-91	14	1060	-125	31
-106	23	385	-80	31
-94	14	-399	82	31
-94	0	-1435	264	31
-57	-9	-1504	321	31
-37	-30	-917	186	31
-1	-27	-735	-129	31
32	-20	-774	-68	31
49	-4	-750	270	31
64	17	-297	71	31
68	23	189	-392	31
72	16	555	-504	31
44	20	721	-191	31
29	29	444	283	31
5	32	380	566	31
-55	57	443	460	31
-96	132	263	188	31
-102	204	92	80	31
-111	173	75	-91	31
-101	223	-106	-406	31
-66	456	-37	-617	31
-16	704	267	-588	31
-5	687	91	-41	31
-47	-9	-61	558	31
20	-933	-59	360	31
8	-1385	-14	-69	31
-161	-1342	81	-118	31
133	-736	21	-111	31
286	-160	95	21	31
-121	-57	352	87	31
-75	227	483	174	31
-71	563	381	159	31
-112	587	76	-4	31
10	287	-356	26	31
41	-153	-600	-13	31
122	-267	-241	8	31
-51	-42	50	-24	31
-53	76	-39	-39	31
9	-184	116	-4	31
9	-149	107	-50	31
62	30	28	-62	31
56	32	22	-94	31
96	146	11	-106	31
74	79	92	-105	31
79	75	39	-79	31
-67	103	36	-33	31
91	129	22	57	31
170	214	21	139	31
-94	138	69	219	31
-33	74	77	193	31
-81	10	53	21	31
14	61	26	-22	31
-16	99	14	21	31
-45	76	-42	4	31
32	130	-45	-28	31
-101	164	-47	-29	31
-17	203	-30	-26	31
6	143	2	-37	31
59	2	-34	-29	31
59	-155	-38	-12	31
42	-187	42	13	31
127	-16	104	18	31
49	103	33	-31	31
22	139	-33	-37	31
42	73	-72	-31	31
1	-104	-188	-28	31
-70	-19	-142	-14	31
-57	132	49	-21	31
-67	87	47	82	31
-132	19	26	154	31
-63	-31	-51	71	31
-12	134	-187	34	31
-47	16	-119	-52	31
21	-385	-107	-171	31
166	-530	-149	-200	31
126	-586	83	-196	31
113	-327	661	34	31
168	-76	856	169	31
54	-50	414	22	31
5	66	-61	182	31
-16	84	-649	262	31
-109	80	-821	69	31
-17	94	-280	69	31
26	134	-110	9	31
-17	276	-284	-9	31
10	387	-117	-25	31
-93	307	97	-107	31
-114	118	69	-2	31
-56	92	-15	-29	31
-1	169	108	-126	31
61	166	410	-119	31
72	-73	428	-187	31
60	-506	218	-144	31
44	-657	155	-77	31
73	-358	192	27	31
62	-121	166	173	31
28	-13	-244	153	31
-4	85	-587	186	31
-31	111	-774	122	31
-50	152	-521	75	31
-87	112	112	106	31
-149	126	12	97	31
-176	138	8	86	31
-47	117	51	84	31
5	227	11	156	31
-17	291	140	-2	31
-66	364	106	-194	31
-144	305	184	-91	31
-37	-148	252	-54	31
72	-416	347	-149	31
91	-215	205	-120	31
106	-153	0	-22	31
106	-277	-174	62	31
59	-288	-127	29	31
7	-187	144	-1	31
-67	-55	119	12	31
-142	79	210	37	31
-159	104	102	64	31
-75	21	-184	32	31
-19	21	-243	32	31
-95	99	-99	4	31
56	150	88	-14	31
96	121	6	-34	31
69	147	288	-46	31
154	179	409	-4	31
46	209	94	61	31
61	272	-63	86	31
66	-11	-386	12	31
29	-446	-332	-106	31
29	-420	180	-227	31
-16	-241	538	-192	31
-33	-178	857	-40	31
-36	-67	977	143	31
-22	-29	554	282	31
-79	-7	-306	-59	31
-108	19	-1105	-263	31
-109	52	-1370	51	31
-67	121	-732	-131	31
14	388	-50	-170	31
-11	737	50	48	31
50	551	-3	85	31
176	82	-493	133	31
101	-368	-757	31	31
-91	-696	-352	49	31
104	-345	92	50	31
215	145	207	82	31
-182	172	240	71	31
-111	131	264	94	31
57	24	224	104	31
-126	-126	274	12	31
-112	-131	285	5	31
-53	-103	257	-96	31
-28	-72	135	-130	31
1	131	87	-154	31
-7	393	29	-55	31
26	274	-84	251	31
81	9	-69	304	31
105	-257	-27	28	31
112	-427	-2	-92	31
139	-189	20	-36	31
169	-59	86	-14	31
40	-84	99	3	31
-54	36	75	-22	31
47	80	57	-64	31
49	2	56	-84	31
38	-132	59	-64	31
-37	-184	11	-48	31
-117	44	9	9	31
-130	299	8	15	31
-132	365	-31	-25	31
20	455	41	15	31
42	207	194	97	31
64	-351	250	119	31
7	-498	254	-10	31
-69	-237	-16	-53	31
66	18	-277	31	31
54	52	-133	318	31
31	49	-137	491	31
165	86	-169	173	31
147	43	56	-29	31
-20	33	152	-176	31
-99	16	64	-316	31
-89	17	-71	-211	31
-56	36	-163	-37	31
-59	19	-90	148	31
-38	39	-41	29	31
-28	77	-28	-222	31
-7	139	51	-183	31
-42	125	170	-82	31
-92	78	211	-142	31
-14	22	133	-118	31
40	-12	360	-79	31
84	197	701	-86	31
70	549	520	-6	31
79	623	12	52	31
86	49	-624	191	31
49	-513	-1148	192	31
37	-536	-727	45	31
-117	-342	83	-59	31
-10	-52	180	-171	31
55	62	132	-129	31
-207	-46	-83	38	31
-21	-312	-192	204	31
162	-392	-122	220	31
-164	-260	-212	147	31
-255	-449	-24	71	31
22	-387	-31	-42	31
78	-137	65	-42	31
63	-17	109	-83	31
89	193	-214	-31	31
97	160	-518	132	31
165	171	-548	77	31
61	291	-112	80	31
29	435	138	72	31
59	609	232	81	31
-62	378	340	148	31
-84	-94	421	-20	31
-42	-450	452	-140	31
-64	-486	271	-164	31
-117	-168	52	-109	31
-131	-25	-106	-79	31
-48	-53	-26	-110	31
4	-35	83	-73	31
-27	-66	156	-13	31
4	71	259	153	31
55	172	234	146	31
41	224	106	-12	31
-1	215	-14	-51	31
7	141	-59	49	31
128	140	-22	252	31
117	91	74	240	31
-1	81	193	24	31
-77	32	291	-28	31
-142	98	140	-21	31
-52	249	-94	-91	31
47	310	-149	-202	31
-19	392	-43	-240	31
-32	344	27	-156	31
-19	-94	-68	-77	31
-54	-589	-124	11	31
108	-498	-279	8	31
41	-350	-504	-12	31
-135	-409	-424	102	31
61	-239	-99	99	31
192	-68	3	65	31
33	6	-13	57	31
-126	-8	48	-21	31
-2	-3	65	25	31
34	41	94	17	31
-32	10	56	22	31
-19	69	66	61	31
-9	124	22	25	31
16	102	28	-7	31
-10	125	156	-44	31
-2	202	159	-10	31
-4	392	109	-12	31
-15	658	12	11	31
11	658	-44	44	31
45	361	-159	5	31
149	-254	-107	-26	31
189	-815	114	-6	31
81	-634	122	40	31
32	-336	19	-3	31
107	-323	-109	-50	31
59	-405	-143	22	31
-72	-395	4	166	31
-29	-55	114	199	31
8	119	169	28	31
-53	209	312	-111	31
-111	450	193	-123	31
-167	437	-79	-22	31
-51	218	-111	9	31
25	-135	-54	-47	31
-22	-405	-75	39	31
31	-290	-76	63	31
121	-85	-113	-2	31
130	61	-141	-45	31
35	156	108	-159	31
37	61	379	-231	31
56	-44	187	-129	31
-67	-127	-170	104	31
-124	-104	-309	226	31
-71	38	-402	54	31
-92	74	-33	-72	31
-1	65	322	-174	31
81	52	199	-235	31
-17	56	-76	40	31
5	57	-463	425	31
-47	62	-369	472	31
-12	77	-19	79	31
46	56	136	-92	31
11	47	317	-101	31
85	46	336	-172	31
94	52	228	-74	31
113	62	187	43	31
3	81	-34	167	31
-35	69	-203	131	31
39	84	239	-32	31
-57	194	679	7	31
-122	282	506	-7	31
-114	304	-62	-74	31
-106	-88	-665	51	31
-82	-631	-1004	106	31
-24	-406	-1012	93	31
-60	92	-448	74	31
-64	278	124	-9	31
32	267	420	-112	31
60	165	366	-178	31
66	131	193	-144	31
41	34	235	-22	31
3	-125	129	204	31
-33	-410	86	209	31
42	-570	-38	-52	31
46	-383	-61	-49	31
-96	-199	43	-93	31
-67	-46	14	-163	31
-87	215	-25	-62	31
-104	325	-82	-184	31
-76	195	-21	-138	31
-57	-2	54	-40	31
44	-207	104	-72	31
71	4	152	-22	31
66	292	113	108	31
81	159	51	191	31
118	85	87	89	31
94	67	85	55	31
15	120	53	74	31
0	191	89	106	31
109	-56	24	99	31
146	-434	-109	37	31
64	-602	-162	26	31
2	-237	-60	17	31
-93	111	27	22	31
-68	135	62	-27	31
-37	250	68	-111	31
-85	206	26	-84	31
-112	140	36	-11	31
-104	110	-10	-26	31
13	-33	-46	-69	31
64	2	-77	-134	31
138	135	-59	-44	31
23	117	-24	207	31
-108	60	-50	106	31
47	-15	-17	-89	31
36	-306	-46	22	31
98	-240	-30	19	31
90	156	56	-25	31
-52	392	79	25	31
-66	542	104	-4	31
-14	297	76	2	31
32	92	34	-50	31
-95	-64	84	-56	31
-75	-563	109	-30	31
-37	-434	46	-32	31
-63	358	-39	200	31
-13	546	-112	287	31
-8	-29	-122	-19	31
22	-463	-191	-51	31
67	-667	-218	229	31
129	-471	-130	186	31
77	-153	-54	-119	31
-17	-325	85	-199	31
33	-126	138	-124	31
9	120	182	-76	31
-106	57	84	64	31
-24	42	-56	122	31
57	-179	-23	61	31
-68	-188	-61	31	31
-50	-17	-56	-18	31
34	106	-89	-69	31
-29	207	-77	-98	31
-9	203	-52	-156	31
67	187	-26	-172	31
59	144	7	-33	31
13	152	-2	173	31
49	244	56	166	31
113	310	58	108	31
60	244	103	148	31
37	-37	131	47	31
22	-418	161	-134	31
-19	-340	111	-219	31
-56	40	-64	-186	31
-116	82	-74	-106	31
-60	66	34	-80	31
37	93	59	-53	31
19	114	-63	221	31
-102	384	-96	260	31
-76	905	-112	-87	31
44	1071	-43	-36	31
-71	636	97	151	31
-147	-57	177	41	31
-42	-1053	307	-17	31
56	-1381	166	81	31
102	-747	-67	50	31
94	-195	-165	-13	31
99	227	-124	-83	31
83	402	-86	-71	31
44	306	-59	107	31
19	127	117	120	31
30	-161	269	94	31
-10	-475	312	78	31
-94	-661	-28	91	31
-94	-460	-368	113	31
-47	-106	-320	-39	31
29	111	-397	-204	31
21	172	-277	-101	31
4	214	173	69	31
58	271	347	49	31
51	338	556	108	31
67	368	518	62	31
67	63	133	-175	31
38	-271	-27	-374	31
50	-332	-214	-303	31
10	-348	-404	-21	31
-71	-144	-456	74	31
-43	69	-222	65	31
-63	47	-29	97	31
-108	140	-1	74	31
-69	134	24	-14	31
-112	97	-82	-106	31
-92	124	-11	-119	31
-108	197	-11	-14	31
-70	483	-150	87	31
50	614	-297	78	31
85	466	-63	113	31
161	112	447	219	31
146	-291	591	112	31
64	-418	534	-73	31
53	-270	182	-97	31
92	-293	31	-9	31
91	-466	-27	131	31
-1	-245	-205	102	31
-32	-127	-262	70	31
-53	-214	-340	102	31
-185	-88	-249	39	31
-159	83	-419	22	31
-75	188	-420	-3	31
-21	133	-195	-47	31
51	125	15	-135	31
-31	118	554	-172	31
-22	76	769	-47	31
84	86	604	22	31
109	56	147	-33	31
126	62	-109	-80	31
156	103	130	-96	31
117	259	179	-130	31
44	376	84	-106	31
5	242	-131	-69	31
-36	6	-273	-95	31
-59	-267	-328	181	31
-114	-435	-387	430	31
-129	-261	-267	197	31
-77	-45	-166	76	31
-55	9	-14	99	31
-6	185	284	221	31
30	310	501	151	31
59	299	531	-14	31
36	134	414	6	31
14	-354	149	-111	31
38	-521	-56	-74	31
30	-199	-184	-116	31
164	6	-228	-129	31
137	37	-56	-82	31
17	42	50	-99	31
17	29	1	-88	31
-51	21	-96	-53	31
-71	16	-130	92	31
-152	27	-62	98	31
-110	35	4	122	31
-52	19	7	106	31
-65	16	-131	84	31
-7	64	-294	53	31
4	246	-471	-51	31
69	528	-557	-119	31
91	501	-348	-128	31
106	4	-254	-13	31
91	-515	-127	-81	31
36	-470	182	-136	31
16	71	598	39	31
-8	169	774	-67	31
-12	-63	562	-307	31
-16	-244	182	-171	31
-12	-428	-200	41	31
-43	-172	-26	92	31
-85	19	-123	-9	31
-84	-58	-215	-29	31
-59	-107	133	69	31
-23	-152	336	160	31
7	-54	301	289	31
27	26	55	284	31
27	51	-7	204	31
-7	55	45	12	31
-4	92	-32	-257	31
36	172	-574	-508	31
-1	189	-501	-389	31
-21	180	52	155	31
-2	-4	16	492	31
4	-238	94	287	31
-4	-134	100	-89	31
-30	59	28	-56	31
42	89	-30	81	31
46	76	31	242	31
-69	51	42	334	31
-67	78	41	167	31
-19	176	196	149	31
12	211	105	86	31
37	104	25	-74	31
74	38	-73	-180	31
108	149	72	-339	31
21	309	131	-300	31
-11	255	4	-138	31
51	-149	188	-107	31
32	-633	144	-86	31
2	-764	-250	-66	31
44	-486	-430	22	31
75	-186	-257	70	31
-3	-84	-285	-3	31
-85	9	-259	-74	31
-133	192	67	-26	31
-119	218	39	151	31
-52	190	-109	106	31
-22	184	-110	-19	31
-37	109	-34	-7	31
30	115	153	58	31
143	144	322	233	31
115	145	423	294	31
128	122	377	101	31
141	71	286	-29	31
74	-36	149	-44	31
-36	-135	-77	-71	31
-178	-66	-225	-27	31
-195	42	-257	-88	31
-156	71	-227	-93	31
-184	55	-149	51	31
-119	9	-92	7	31
16	-24	20	-173	31
42	-37	252	-164	31
107	-27	327	-51	31
141	124	254	-37	31
110	315	144	11	31
121	238	35	1	31
86	2	-64	-4	31
41	-232	-390	-15	31
12	-366	-493	-91	31
41	-111	0	-135	31
58	207	270	-164	31
24	350	99	-14	31
79	433	-20	232	31
89	322	116	212	31
4	-140	259	-6	31
-11	-709	61	137	31
-38	-702	-137	318	31
-39	-399	-139	62	31
5	-124	82	-172	31
-4	49	308	-152	31
12	77	374	-184	31
-15	153	591	-244	31
-38	-102	686	-96	31
-22	-212	219	172	31
-21	-13	-428	620	31
-7	28	-793	763	31
-29	46	-1060	590	31
-23	26	-1134	351	31
-24	66	-806	-222	31
-59	72	-415	-557	31
-86	-2	-49	-102	31
-63	41	356	171	31
-11	66	531	-186	31
31	76	392	-597	31
102	313	182	-421	31
112	535	-185	142	31
99	512	-463	107	31
69	470	-448	-230	31
-7	97	-71	-429	31
-57	-434	488	-357	31
-63	-549	387	-544	31
-37	-415	104	-380	31
15	-163	-508	-257	31
84	-76	-776	-390	31
46	-145	170	38	31
49	-66	1023	-17	31
62	17	1330	-21	31
-49	26	1308	485	31
-23	-101	999	1205	31
29	-92	116	1457	31
-20	231	-253	1329	31
-92	334	-86	1146	31
-141	174	-490	183	31
-146	62	-994	-537	31
-114	-39	-1501	-253	31
-40	-87	-1393	-286	31
-21	-21	-170	-879	31
78	-88	1218	-1061	31
