File Name: not saved
Channel 1: 'EMG 1', 22502 values, raw ADC, no filters.
Channel 2: 'EMG 2', 22502 values, raw ADC, no filters.
Channel 3: 'EMG 3', 22502 values, raw ADC, no filters.
Channel 4: 'EMG 4', 22502 values, raw ADC, no filters.
Digitals combined (event=16, d=8, c=4, b=2, a=1): 22502 values, .

23	11	-121	-226	31
460	38	-91	-404	31
254	-107	-22	-155	31
149	-135	-144	74	31
57	116	-104	226	31
-19	300	-92	142	31
52	124	-107	233	31
24	-168	-34	209	31
61	-165	82	-27	31
-21	-19	124	-32	31
-33	19	83	-87	31
52	25	93	-80	31
41	-8	71	-59	31
59	8	82	-72	31
89	5	105	-61	31
82	-10	111	-74	31
-6	4	64	-48	31
-20	-46	12	-54	31
-24	-91	36	-89	31
-32	-4	24	-101	31
-21	195	32	-32	31
-57	125	9	46	31
-69	-54	-41	57	31
-79	-4	-59	27	31
-74	35	-13	9	31
-47	-6	70	20	31
-34	-45	112	9	31
5	-17	135	-32	31
45	11	78	-86	31
17	14	38	-50	31
52	46	9	24	31
78	35	-130	59	31
24	42	-193	47	31
63	37	-169	93	31
2	-29	-87	108	31
-71	-57	-35	-114	31
-12	-44	-37	-172	31
-64	-30	20	-132	31
-72	-11	87	-84	31
-76	6	147	141	31
-106	11	94	116	31
16	25	39	7	31
-43	21	12	-6	31
-119	11	-4	1	31
66	2	44	15	31
22	-21	6	-34	31
-28	-24	-27	-108	31
86	-12	9	-87	31
85	1	14	4	31
67	10	-44	-31	31
-2	1	-58	-13	31
63	-17	12	59	31
38	3	84	46	31
-12	36	126	22	31
44	36	100	49	31
-42	18	-65	130	31
-126	17	-104	227	31
-225	57	156	221	31
-133	68	234	-26	31
24	35	61	-226	31
9	24	-41	-147	31
59	-58	-162	-10	31
83	-172	-287	-119	31
57	-149	-344	-547	31
49	-94	-298	-447	31
50	-42	-108	187	31
112	4	34	141	31
104	-7	66	91	31
-12	-74	94	429	31
-81	-164	112	663	31
-51	20	102	489	31
-12	318	34	-45	31
0	361	-94	34	31
-7	234	-112	136	31
-7	107	-87	-141	31
-32	242	7	-250	31
-67	206	186	-199	31
-18	-259	232	-184	31
73	-459	242	-179	31
110	-268	208	15	31
70	-12	36	258	31
59	48	-128	165	31
63	-14	-202	-67	31
27	-43	-134	27	31
19	-67	-14	20	31
37	-34	131	-27	31
0	-10	218	-12	31
-46	3	297	89	31
-39	10	415	233	31
-86	10	239	162	31
-108	14	-89	157	31
-51	10	-380	31	31
24	25	-468	-232	31
31	10	-369	-299	31
-79	12	-267	-198	31
-27	29	-107	-193	31
107	51	-66	-149	31
16	76	36	-129	31
-36	57	103	-134	31
-27	43	19	39	31
-6	27	44	84	31
52	2	51	-21	31
-24	-29	131	-25	31
-69	-50	170	145	31
-137	-29	76	262	31
-104	-14	57	365	31
-44	-13	4	329	31
-55	10	-53	72	31
-26	31	-30	-301	31
-115	41	68	-510	31
-29	31	114	-278	31
136	1	48	-101	31
83	-16	16	-80	31
29	-11	-10	-109	31
67	7	-58	-261	31
86	-4	-65	-327	31
130	-9	37	-211	31
-19	12	181	-47	31
-112	26	199	72	31
44	43	119	331	31
-27	63	57	589	31
-181	112	19	683	31
-178	87	-91	590	31
-103	22	-159	50	31
-4	-26	-69	-183	31
115	-146	-29	-34	31
57	-194	-54	45	31
73	-100	-71	384	31
224	2	-107	469	31
252	17	-113	47	31
95	15	-1	-359	31
-19	31	83	-385	31
-22	-32	167	-229	31
-137	-143	275	-124	31
96	-54	123	-311	31
136	363	-71	-332	31
-39	579	-267	245	31
-2	320	-438	495	31
-69	41	-480	325	31
-33	-77	-307	149	31
-52	-289	-54	-85	31
-10	-362	-14	-111	31
59	-193	114	-104	31
71	-129	199	-49	31
37	-104	239	-2	31
-16	-27	222	-95	31
58	17	101	-102	31
135	12	112	-127	31
115	16	62	-90	31
3	-17	73	-49	31
62	-20	131	-18	31
1	8	109	-23	31
-11	-14	77	-26	31
67	1	2	5	31
-37	6	-26	-17	31
-26	16	-76	-26	31
-71	18	-60	-48	31
-145	14	62	19	31
-92	26	72	32	31
-69	14	56	-136	31
-61	6	81	-146	31
22	-14	102	56	31
35	5	111	242	31
7	57	147	184	31
26	51	179	54	31
24	26	194	82	31
38	34	161	151	31
4	24	12	213	31
-20	13	-137	-68	31
12	11	-383	-485	31
13	-3	-528	-663	31
-53	-37	-458	-337	31
-67	-56	-276	-2	31
-24	-9	-52	-162	31
-123	16	63	125	31
-130	39	157	437	31
74	57	80	242	31
122	34	-50	268	31
162	15	-1	381	31
97	-7	86	139	31
-112	4	86	236	31
13	27	37	381	31
29	41	31	70	31
-39	52	84	42	31
69	39	167	59	31
74	-17	254	56	31
20	-98	317	75	31
-96	-98	179	-146	31
-98	-36	-32	-372	31
-166	16	-227	-655	31
-162	30	-356	-760	31
58	32	-315	-493	31
113	35	-190	-58	31
56	1	-51	633	31
-229	202	-7	1124	31
-237	505	-7	533	31
97	356	-34	-62	31
165	-58	-26	-10	31
266	-365	42	-131	31
125	-436	61	-52	31
-86	-338	122	-10	31
164	-157	200	-34	31
66	-27	167	-7	31
-62	-22	66	-60	31
-29	14	35	-47	31
-51	7	58	-175	31
-16	13	-21	-224	31
-98	15	-137	-235	31
62	-57	-84	-212	31
35	-82	15	-29	31
-23	70	112	37	31
112	197	154	-9	31
87	41	67	37	31
86	-9	9	32	31
16	67	-42	67	31
43	81	-82	-18	31
-2	76	-146	-203	31
-51	27	-105	-181	31
-2	27	-37	-64	31
-88	12	-36	26	31
-71	-6	29	21	31
-102	-2	79	106	31
-99	-11	235	166	31
-63	14	254	149	31
-75	11	103	88	31
-39	12	54	-12	31
-21	22	-30	4	31
35	7	-66	152	31
29	7	-14	250	31
5	9	-11	77	31
83	4	-4	-134	31
192	4	-51	-116	31
87	22	-63	-36	31
-90	71	-72	-70	31
-56	94	-185	-127	31
0	62	-167	-124	31
5	15	-124	-15	31
-74	-67	-34	93	31
-107	-123	25	181	31
-46	-81	-23	204	31
-33	11	2	47	31
-58	103	-4	-109	31
-37	262	-50	-84	31
11	363	-88	-43	31
-26	133	10	-46	31
46	-121	71	29	31
92	-236	93	38	31
61	-335	133	2	31
66	-256	129	-98	31
74	-47	137	-199	31
71	10	67	-134	31
86	-116	117	70	31
113	-121	282	373	31
-11	-88	409	489	31
-87	-46	358	300	31
-99	0	204	181	31
-56	-106	18	90	31
-41	-75	-292	-27	31
-64	167	-475	-54	31
-1	297	-575	-134	31
17	101	-572	-44	31
26	-83	-335	-12	31
7	17	-72	-122	31
50	89	11	-112	31
70	63	29	-132	31
46	29	39	-159	31
63	-5	93	-141	31
3	9	106	-134	31
-52	-10	23	-102	31
-36	-67	59	-9	31
29	-60	41	22	31
-12	112	51	29	31
-99	207	95	98	31
-39	175	137	66	31
-62	267	184	-4	31
-87	383	117	31	31
52	436	142	18	31
27	195	257	37	31
51	-135	390	77	31
152	-384	301	137	31
29	-644	106	203	31
19	-588	19	151	31
42	-375	-179	-36	31
-11	-97	-330	-250	31
21	28	-373	-114	31
35	-9	-299	37	31
-40	29	-156	-319	31
-141	9	-144	-567	31
-118	45	-89	-132	31
-60	50	-43	106	31
-59	74	-126	-277	31
-112	96	-48	-130	31
-79	82	-2	418	31
-2	102	-21	553	31
24	29	75	404	31
57	-34	102	69	31
62	-54	71	-64	31
99	-36	9	7	31
91	-8	-5	29	31
61	14	13	84	31
-8	37	36	11	31
-10	42	123	-459	31
39	48	210	-976	31
26	24	252	-819	31
-29	18	235	-393	31
-162	11	112	111	31
-72	24	1	1143	31
66	67	-6	1735	31
17	84	-94	1204	31
12	104	-177	742	31
-8	111	-117	528	31
29	54	-91	161	31
195	-25	-171	-131	31
101	-32	-205	-573	31
-29	-34	-245	-746	31
2	-48	-187	-737	31
-28	-36	-42	-727	31
62	-19	-35	-374	31
72	12	8	-305	31
11	12	179	-305	31
72	6	262	-160	31
31	-6	227	179	31
-136	-37	162	598	31
-217	-82	64	512	31
-84	-191	22	329	31
32	-202	19	-39	31
5	87	-32	-216	31
14	314	-24	-152	31
89	135	87	-159	31
71	-52	81	-56	31
59	23	32	-66	31
87	109	63	2	31
84	64	66	4	31
42	19	59	-21	31
4	62	8	-22	31
54	219	-20	-21	31
-2	217	-29	11	31
-61	64	-53	-18	31
-49	68	-41	-20	31
-54	-126	-32	-25	31
-40	-395	14	-4	31
-37	-242	26	-43	31
-11	-22	-12	-39	31
39	-74	-7	54	31
104	-159	46	126	31
66	-100	106	86	31
35	-34	21	47	31
84	14	-81	77	31
3	32	-122	49	31
-59	40	-265	26	31
54	46	-230	-27	31
79	60	-157	-26	31
-78	53	-146	1	31
-97	-19	57	-40	31
-77	-11	129	-67	31
-110	-9	153	-44	31
-95	-14	175	-16	31
-136	13	136	-5	31
-84	-4	146	41	31
-47	9	16	46	31
-33	8	-134	37	31
49	9	-187	55	31
58	59	-99	38	31
71	188	5	34	31
59	331	62	36	31
22	235	230	34	31
18	96	340	42	31
-8	123	387	6	31
-39	94	465	9	31
-43	-87	322	-16	31
-52	-190	-1	-81	31
-57	-123	-106	-81	31
-85	-227	-250	-34	31
-95	-360	-452	91	31
-36	-328	-348	87	31
-42	-168	-234	87	31
1	11	-265	63	31
64	10	-372	-170	31
25	35	-319	-270	31
116	41	-58	-440	31
139	47	184	-309	31
0	62	284	248	31
41	59	202	360	31
31	187	229	260	31
-20	171	275	313	31
32	-41	220	226	31
-23	-26	140	-42	31
-49	138	-41	-185	31
-41	-21	-183	-79	31
-37	-267	-244	-79	31
-47	-145	-224	-370	31
-60	133	-134	-312	31
-2	82	-72	231	31
18	-64	-81	310	31
47	-69	-89	255	31
34	-25	13	287	31
40	49	261	-41	31
116	44	498	-184	31
62	150	388	111	31
44	225	163	449	31
107	257	-33	67	31
46	160	-162	-158	31
3	-388	-159	-125	31
6	-541	-193	-517	31
-17	-77	-61	-390	31
-112	112	25	-156	31
-119	61	-36	274	31
-41	42	-29	660	31
-22	14	43	317	31
44	38	57	105	31
3	28	-50	141	31
35	26	-61	7	31
85	39	-31	-171	31
-24	7	-16	-250	31
-26	6	-56	-168	31
52	7	-124	-145	31
122	32	-188	-235	31
37	44	-259	-217	31
-126	43	-214	-86	31
-103	66	-188	72	31
-74	79	-120	-67	31
-109	140	92	-39	31
-75	148	242	244	31
-78	54	277	152	31
-64	0	257	2	31
-17	-34	156	18	31
96	-76	131	-7	31
156	-116	133	12	31
42	-114	44	25	31
77	-89	58	31	31
97	-52	124	42	31
61	-32	129	8	31
56	-75	109	-9	31
28	-54	48	-46	31
13	-9	11	-21	31
-26	21	-75	45	31
-6	49	-156	132	31
0	27	-176	175	31
-39	9	-213	59	31
-59	12	-111	6	31
-20	-39	-46	41	31
16	-147	-7	-87	31
39	12	81	-272	31
40	493	56	-285	31
56	578	-1	-159	31
97	197	-102	-38	31
33	-15	-114	-63	31
40	-181	-18	-40	31
58	-432	89	49	31
49	-433	159	36	31
29	-182	136	106	31
-26	-20	180	169	31
-22	6	162	157	31
-33	52	67	29	31
-8	99	31	-19	31
-97	237	23	89	31
-159	237	165	101	31
-89	70	116	161	31
-87	145	-134	116	31
-41	259	-246	80	31
-65	5	-404	71	31
25	-286	-352	16	31
117	-220	-104	70	31
-21	-255	94	64	31
-59	-343	250	187	31
-34	-171	290	198	31
-16	-54	184	-91	31
-4	-18	-43	-265	31
8	15	-121	-390	31
-25	21	-114	-453	31
-58	56	-85	-255	31
-37	229	104	-92	31
-22	311	184	34	31
17	148	-14	147	31
21	130	-191	62	31
33	57	-257	44	31
60	-247	-146	66	31
65	-254	-89	-13	31
107	44	-100	-131	31
122	123	149	-209	31
69	85	246	-124	31
81	88	240	121	31
86	-46	206	334	31
16	-137	94	448	31
2	-151	-6	517	31
-7	-71	-197	277	31
-24	25	-220	-42	31
-21	27	-100	-96	31
-29	54	14	-124	31
-51	47	122	-294	31
-31	26	209	-434	31
6	28	324	-490	31
22	26	298	-595	31
36	26	141	-359	31
30	20	-32	133	31
52	5	-260	190	31
26	0	-315	-137	31
27	25	-227	264	31
33	51	-164	1010	31
-13	57	-32	904	31
-48	7	14	548	31
-63	-51	7	260	31
-12	74	70	102	31
-42	249	65	-136	31
-82	127	192	-324	31
-85	-155	297	-359	31
-4	-205	79	-532	31
37	-57	-47	-282	31
-65	5	-33	377	31
-51	-1	-122	577	31
-17	-16	-324	51	31
32	-20	-301	-145	31
17	17	-46	-12	31
-40	33	25	-134	31
50	24	44	-168	31
7	7	-67	-180	31
-10	11	-154	-177	31
64	12	-49	-199	31
8	21	42	-119	31
-62	24	132	112	31
-121	5	169	151	31
-44	0	168	-69	31
25	-4	149	-307	31
-9	-4	180	-353	31
-36	-14	237	-330	31
-41	-18	200	-304	31
2	0	162	-170	31
24	15	61	345	31
114	7	-217	791	31
122	-5	-405	248	31
80	-18	-357	-350	31
126	-46	-249	-112	31
84	102	-230	51	31
16	422	-177	204	31
-44	362	-74	389	31
-113	61	16	248	31
-132	-12	309	117	31
-55	-193	453	-29	31
58	-425	339	41	31
68	-392	237	35	31
-124	-155	153	-22	31
-166	-15	101	50	31
2	-19	-1	-6	31
11	36	-31	-42	31
71	23	7	-112	31
85	34	-11	-72	31
104	49	-34	-42	31
115	41	-24	-42	31
6	74	31	-19	31
45	40	88	15	31
-47	-1	-2	10	31
-137	-42	-148	-78	31
3	-43	-215	-94	31
41	-41	-265	-114	31
-73	-36	-182	-129	31
-52	-11	23	-155	31
29	3	104	-151	31
-4	34	29	38	31
27	16	-69	282	31
44	27	-76	228	31
57	46	49	372	31
85	44	41	502	31
104	43	33	89	31
104	21	11	-97	31
44	20	-139	-143	31
84	22	-77	-296	31
58	112	16	-493	31
-16	345	84	-321	31
23	546	204	-44	31
-10	400	259	-133	31
-94	68	142	-36	31
-120	-200	-21	196	31
-107	-569	-29	348	31
-42	-694	13	112	31
-23	-382	113	-24	31
-26	-115	241	26	31
43	-4	302	-74	31
-6	-26	164	36	31
-61	-62	-128	133	31
-44	37	-396	222	31
19	72	-567	61	31
35	31	-436	-54	31
39	47	-167	205	31
66	105	-31	-207	31
-102	84	-47	-630	31
-114	29	-110	-530	31
-21	31	-126	-573	31
-91	46	-62	-104	31
-47	34	100	444	31
7	18	161	746	31
12	27	34	988	31
20	64	-141	691	31
9	219	-242	155	31
70	354	-122	-177	31
84	202	204	-322	31
64	7	315	-263	31
46	-93	329	-187	31
56	-255	199	-22	31
77	-318	-14	168	31
36	-176	-2	39	31
27	-32	29	-109	31
17	-56	192	-33	31
-42	-37	204	191	31
-87	10	167	54	31
-61	2	147	-184	31
-58	19	19	-142	31
-37	12	4	-150	31
7	22	30	-86	31
-20	24	104	-45	31
24	29	75	-101	31
62	21	54	-246	31
33	6	22	-384	31
81	15	-49	-352	31
120	9	-57	-417	31
105	19	84	-450	31
112	19	320	66	31
86	17	124	850	31
-24	17	-259	1057	31
-112	36	-522	520	31
-56	8	-633	61	31
-13	20	-417	86	31
-41	176	-89	203	31
-89	107	160	234	31
-70	-84	194	41	31
-19	-59	94	42	31
-115	9	27	16	31
-99	38	-80	-184	31
24	-4	-136	-334	31
70	-57	-85	-564	31
96	-74	-3	-621	31
51	-81	134	-369	31
-32	-64	100	147	31
-68	-12	36	439	31
16	99	155	430	31
-30	72	180	224	31
-92	-8	36	-67	31
-42	2	-142	-418	31
-315	4	-47	-581	31
-507	14	114	-265	31
-352	4	140	551	31
-310	2	169	1172	31
-277	9	30	557	31
88	36	-232	62	31
457	58	-361	-41	31
427	41	-211	-748	31
463	39	63	-377	31
503	7	229	127	31
340	12	194	-157	31
217	67	124	-21	31
128	66	74	100	31
117	1	-29	326	31
31	-4	0	3	31
30	107	56	-137	31
15	217	39	-5	31
-42	128	6	-93	31
-3	-95	-1	-30	31
-44	-285	71	-345	31
1	-536	45	-182	31
12	-365	-36	1	31
-37	119	-98	86	31
-22	87	-128	257	31
41	-81	-106	69	31
44	1	-53	-74	31
18	82	100	-255	31
24	94	306	-264	31
-22	42	500	-156	31
-50	8	431	-66	31
-76	2	16	177	31
-52	9	-247	446	31
-21	23	-304	584	31
12	13	-422	491	31
12	36	-448	72	31
-68	53	-307	-431	31
-235	53	-147	-556	31
-309	52	-51	-520	31
-87	41	42	-290	31
-2	41	154	51	31
73	8	316	212	31
173	-47	467	660	31
-29	-111	290	728	31
-286	-131	81	81	31
-313	-59	39	-61	31
-116	-1	-132	-39	31
-2	39	-252	-280	31
-387	82	-176	-215	31
-1007	95	-15	-39	31
-601	74	-25	197	31
245	54	-129	86	31
305	45	-62	-500	31
471	-25	3	-691	31
659	11	84	-346	31
335	200	135	-99	31
222	195	42	145	31
295	-17	17	613	31
304	-197	-50	793	31
193	-137	-124	404	31
158	-57	-32	-58	31
118	-122	90	-85	31
-42	30	99	104	31
91	255	65	144	31
109	323	94	95	31
26	303	164	100	31
39	277	185	62	31
-53	292	67	-97	31
-91	40	-137	-230	31
-68	-367	-429	-207	31
-56	-479	-526	7	31
-86	-417	-297	-2	31
-42	-440	-37	-665	31
-20	-425	100	-983	31
-25	-147	137	-579	31
11	174	154	-137	31
46	195	159	409	31
54	-54	214	521	31
9	-149	254	462	31
15	26	219	432	31
-53	122	175	-33	31
-26	92	89	126	31
5	52	-76	397	31
-74	37	-239	263	31
-144	30	-210	166	31
-150	37	-59	-118	31
-58	55	62	-204	31
-70	57	105	-101	31
-37	142	122	21	31
-74	325	164	-107	31
5	329	36	-268	31
107	92	-79	-217	31
75	-76	-123	-156	31
193	-229	-169	-166	31
166	-355	-67	139	31
139	-272	121	688	31
-57	-49	230	412	31
-428	67	86	-200	31
-357	42	-7	-337	31
-81	67	-62	-385	31
-57	43	-132	-306	31
-132	34	-122	-203	31
47	39	-63	-11	31
128	14	62	276	31
-31	27	-25	322	31
67	21	-51	472	31
132	22	-85	508	31
99	16	-82	285	31
162	26	104	-34	31
118	23	70	-227	31
85	28	76	-85	31
57	58	97	-51	31
34	54	-39	-119	31
64	54	-139	-194	31
44	28	-118	-330	31
21	-1	-94	-238	31
-39	-16	-57	-82	31
-110	-40	159	37	31
-54	-48	217	263	31
-15	-7	96	330	31
-35	140	-9	330	31
2	328	-133	77	31
-67	303	-165	-198	31
-59	24	-73	-178	31
111	-159	76	-327	31
47	-333	151	-237	31
-29	-435	105	-143	31
10	-185	88	-132	31
16	3	109	47	31
61	6	74	14	31
61	28	143	32	31
24	20	251	61	31
-47	36	254	87	31
-68	95	293	139	31
4	102	274	144	31
-14	67	61	131	31
-61	-6	-310	-94	31
-41	-150	-672	-384	31
-40	-179	-775	-530	31
11	21	-568	-556	31
165	99	-243	-239	31
61	-24	3	407	31
-141	-1	66	562	31
-8	79	67	329	31
44	37	142	599	31
-20	20	154	761	31
-22	24	197	204	31
-139	27	247	-50	31
-83	26	168	59	31
-25	12	-26	32	31
-198	14	-172	19	31
-117	-76	-42	-481	31
122	-179	72	-669	31
-8	90	136	-139	31
-67	412	147	226	31
57	174	-11	457	31
7	-185	-170	372	31
-17	-12	-331	172	31
-11	373	-230	52	31
51	308	42	21	31
147	227	247	-122	31
130	251	285	-317	31
54	-35	153	-240	31
59	-225	62	-346	31
2	-210	17	-318	31
-80	-271	63	-102	31
-12	-455	189	104	31
6	-419	330	247	31
-22	-260	359	111	31
-24	-195	267	71	31
-12	-71	113	-49	31
-9	-39	-1	-229	31
-7	-21	-181	10	31
-22	22	-422	153	31
8	42	-457	215	31
78	82	-350	229	31
23	105	-137	-99	31
44	171	-25	-117	31
47	314	-14	-53	31
-16	466	-17	-66	31
-10	298	-56	-88	31
-71	3	-62	-187	31
-51	-128	-44	-106	31
-39	-273	50	-42	31
-63	-285	129	41	31
-64	-98	156	-1	31
-81	46	87	-262	31
-31	6	24	-521	31
14	-61	26	-615	31
1	-119	19	-532	31
-22	-52	77	-58	31
76	262	128	1033	31
117	443	204	1496	31
76	207	154	635	31
90	-132	-47	110	31
139	-213	-97	453	31
174	-196	-103	716	31
49	-165	-87	252	31
-61	-97	-59	-441	31
-54	-20	-160	-487	31
-34	61	-81	-384	31
-22	47	28	-404	31
-27	21	-22	-825	31
3	53	38	-590	31
20	50	19	31	31
14	39	-149	152	31
36	32	-200	402	31
32	16	-134	600	31
11	-9	-136	508	31
31	-35	-168	-17	31
46	-4	-61	-91	31
92	70	146	-139	31
45	110	220	-275	31
-94	86	277	-152	31
-86	52	228	-101	31
-39	66	122	0	31
-86	37	97	-61	31
-61	-44	-24	-7	31
-28	-39	-49	-19	31
-121	-49	-38	-31	31
-90	-140	36	-49	31
-31	-121	71	-93	31
-6	84	56	-70	31
66	188	81	-154	31
54	9	-14	-147	31
45	-86	-101	-57	31
62	9	-146	-12	31
77	63	-131	199	31
109	51	-92	653	31
103	22	-40	491	31
4	20	49	-14	31
-64	18	166	-30	31
48	-46	279	134	31
11	-31	309	-35	31
-172	159	194	-159	31
-70	173	102	21	31
-27	-45	74	-136	31
-43	-170	-106	-189	31
6	-84	-155	-221	31
-36	22	-217	-167	31
39	6	-266	128	31
66	94	8	274	31
66	231	241	143	31
90	153	185	-42	31
22	-14	-42	72	31
-15	-92	-122	-264	31
17	-277	-170	-331	31
-29	-426	-279	57	31
-47	-228	-247	-250	31
-66	17	-220	-194	31
-184	60	-236	57	31
-76	43	-180	-38	31
-49	45	-129	575	31
-29	93	-36	688	31
22	270	44	328	31
1	396	42	114	31
18	401	111	-232	31
-92	275	41	-155	31
79	-154	6	-360	31
116	-526	238	-563	31
99	-606	447	-492	31
153	-477	671	-264	31
-1	-189	706	3	31
57	-34	501	237	31
-74	9	233	379	31
-73	108	61	171	31
-9	168	60	464	31
-33	151	-151	835	31
203	145	-359	831	31
12	180	-358	535	31
-189	323	-522	-314	31
-101	310	-600	-790	31
-2	-8	-396	-485	31
96	-112	-247	-223	31
-53	-217	-94	-197	31
-66	-521	19	125	31
121	-313	-124	261	31
4	337	-200	-187	31
-87	398	-17	-463	31
49	-91	187	-425	31
52	-282	216	-582	31
-77	-217	224	-669	31
-132	-158	330	-357	31
37	-100	215	80	31
52	54	99	250	31
-34	219	162	374	31
-29	137	272	1044	31
-50	31	195	873	31
66	84	-51	-116	31
50	96	-61	4	31
42	84	-178	515	31
78	90	-270	521	31
71	88	-156	159	31
181	75	-36	157	31
111	33	-87	-152	31
-52	23	-175	-733	31
-32	17	24	-543	31
46	3	34	-459	31
-34	-19	30	-375	31
-76	-84	130	-375	31
-101	-147	267	-176	31
-178	-121	529	198	31
-197	-18	436	403	31
-136	23	128	338	31
32	40	-209	35	31
131	154	-647	557	31
105	372	-726	134	31
107	388	-341	-927	31
152	90	34	-294	31
36	-114	112	76	31
1	-273	64	-178	31
29	-325	95	48	31
14	-97	81	329	31
101	-29	82	400	31
54	-49	88	112	31
20	7	32	-22	31
36	26	3	-34	31
-32	106	-39	-137	31
-62	95	45	53	31
-39	39	156	272	31
-36	3	240	380	31
-93	-102	290	4	31
-71	-155	177	-613	31
-5	-151	-50	-532	31
-14	-61	-295	-413	31
-71	25	-259	-53	31
-114	32	-58	375	31
-85	37	160	-54	31
-11	31	450	-319	31
103	30	468	-342	31
148	-1	109	-270	31
82	9	-142	187	31
19	27	-225	1277	31
-21	9	-513	1991	31
-22	29	-702	720	31
-5	31	-378	247	31
26	48	-55	119	31
89	48	-39	-888	31
139	7	126	-588	31
107	43	252	-604	31
71	210	241	-137	31
4	297	151	405	31
-34	325	-82	-108	31
34	413	-97	-111	31
-31	66	-1	-299	31
32	-483	14	-572	31
9	-409	198	-569	31
-183	-153	475	-419	31
-240	-308	396	-322	31
-186	-388	109	-460	31
-138	-207	19	-136	31
-127	-28	-76	1011	31
77	-2	-314	1515	31
-2	12	-485	1055	31
30	58	-521	394	31
250	21	-449	-74	31
250	47	-357	242	31
148	67	-95	-387	31
74	80	284	-811	31
107	99	472	-214	31
20	164	527	-439	31
46	319	499	45	31
49	319	219	132	31
-51	224	-90	-36	31
-23	134	-170	114	31
65	-130	-119	-276	31
-26	-396	114	-259	31
7	-392	60	-223	31
32	-184	-126	-34	31
-156	107	-34	-114	31
-85	299	-57	-77	31
-50	173	-96	-20	31
9	-28	-70	-90	31
41	-165	34	-75	31
-37	-290	186	-387	31
-8	-119	177	-349	31
-35	-2	20	-12	31
-27	-76	-126	512	31
-76	-22	-52	526	31
21	-26	141	376	31
92	-4	335	399	31
-119	33	454	189	31
-34	136	264	140	31
39	229	-86	-27	31
-31	119	-482	11	31
4	108	-800	329	31
-116	134	-768	444	31
-151	9	-345	-265	31
-4	-66	160	-1199	31
47	181	282	-833	31
14	188	287	-420	31
-74	-276	177	11	31
-67	-350	-26	589	31
35	-22	10	678	31
-66	147	106	557	31
-137	90	300	13	31
-315	24	664	-325	31
-317	10	660	-248	31
196	-28	300	-197	31
433	63	197	301	31
537	141	-197	662	31
500	-28	-575	-87	31
86	-51	-536	143	31
-56	149	-462	-31	31
58	164	-152	-637	31
41	90	134	-294	31
119	17	150	-457	31
84	-112	-250	295	31
-196	-165	-516	574	31
-16	-160	-321	-478	31
232	6	-47	-542	31
-51	248	199	332	31
-526	193	165	783	31
-610	-26	117	435	31
-469	-175	13	188	31
-644	-323	-58	492	31
-206	-340	-59	131	31
291	-127	-110	-519	31
-89	27	-9	-272	31
126	22	41	-433	31
568	64	452	-483	31
477	80	827	-186	31
375	80	705	139	31
29	186	542	860	31
-179	240	185	1755	31
-113	145	-475	1545	31
89	37	-765	-723	31
294	-70	-449	-1504	31
324	-240	-319	-441	31
410	-211	-349	-447	31
255	21	-274	-314	31
-54	66	-245	-26	31
-354	114	-196	-122	31
-320	340	-34	-212	31
21	328	202	-216	31
-23	12	292	2	31
-112	-286	255	-7	31
-17	-448	170	77	31
64	-426	83	-130	31
129	-151	-1	-318	31
74	-12	-11	-85	31
-225	-14	96	-499	31
-427	104	164	-389	31
-219	84	225	-21	31
157	46	344	-490	31
307	45	389	-174	31
-42	39	220	477	31
-227	48	-118	713	31
-70	14	-344	247	31
-17	39	-398	26	31
7	54	-444	-349	31
-101	52	-344	-681	31
-322	66	-112	560	31
-206	24	130	1151	31
239	-21	117	1407	31
484	1	118	984	31
535	36	397	-142	31
372	52	501	-674	31
209	24	521	-793	31
219	-4	418	-332	31
-61	55	-90	198	31
-302	91	-784	954	31
-26	78	-1069	202	31
170	33	-610	-884	31
-52	-55	-69	-221	31
-468	-85	234	-192	31
-1007	-37	314	-93	31
-1195	-19	-11	250	31
-658	-25	-227	51	31
-138	-9	-300	254	31
81	-3	-323	492	31
422	81	82	-160	31
449	157	573	-547	31
419	107	816	44	31
343	-34	836	95	31
-199	-149	502	116	31
-375	-117	46	-96	31
-118	-143	-329	-806	31
88	-128	-744	-969	31
423	240	-532	-486	31
734	340	72	179	31
389	-149	234	690	31
134	-369	117	249	31
345	-99	39	582	31
1	62	-192	1307	31
-303	-2	-505	-426	31
-242	-44	-363	-1089	31
-689	-34	-309	-557	31
-888	4	-217	-280	31
-75	47	204	1453	31
151	129	457	2267	31
-1193	155	399	1053	31
-2244	73	14	-1151	31
-1297	6	216	-2647	31
570	-62	630	-2630	31
1231	-122	333	-1992	31
1861	-139	182	122	31
2337	-77	342	2729	31
1485	11	11	2695	31
904	74	-272	866	31
403	144	81	-199	31
47	109	-37	-948	31
-310	54	-446	-952	31
-554	51	-741	976	31
-39	31	-994	1796	31
463	40	-674	-226	31
660	34	-199	-794	31
783	23	229	60	31
517	-20	652	1151	31
-332	-44	888	1427	31
-766	64	866	-455	31
-438	254	664	-1641	31
-104	265	32	-535	31
66	19	-852	89	31
233	-115	-1030	-1088	31
-89	-252	-207	-1574	31
-262	-356	701	-1031	31
48	-130	542	222	31
-101	-22	-21	572	31
-784	-45	66	924	31
-417	44	141	1567	31
455	40	-176	708	31
-84	17	-487	63	31
-254	14	-679	-735	31
-417	9	-480	-1484	31
-1094	61	-5	-1249	31
-507	87	681	-811	31
-236	56	1245	476	31
-1812	-42	909	1842	31
-2707	-97	473	1152	31
-721	-61	114	-317	31
1468	-69	-164	-225	31
2015	-179	-465	-152	31
1315	-146	-1455	7	31
56	81	-1734	1184	31
360	64	-748	554	31
518	2	592	-1343	31
-42	66	391	-948	31
487	81	-563	-137	31
775	175	-540	-464	31
904	194	-270	-600	31
1087	165	656	-286	31
733	52	1192	329	31
-600	-143	538	735	31
-1341	-158	-310	901	31
-686	-56	-382	15	31
-163	31	91	51	31
189	-1	337	488	31
154	-51	529	-275	31
379	-64	626	-885	31
512	-92	439	-507	31
179	-68	302	1046	31
-37	-27	170	932	31
-52	3	-327	104	31
-12	77	-355	-391	31
-167	111	-4	-379	31
41	66	-157	-54	31
34	48	-182	-91	31
332	51	224	1082	31
200	48	283	491	31
-771	12	-81	-1239	31
-512	16	-27	-727	31
-205	46	46	-317	31
-158	27	-389	966	31
-28	-21	-912	944	31
-73	-66	-898	-1281	31
-35	-54	125	-543	31
-94	-124	1045	389	31
201	-132	851	129	31
167	230	432	1269	31
-383	316	-17	1603	31
-306	-120	-664	-250	31
-7	-275	-573	-935	31
-9	52	-136	-239	31
-151	257	225	-853	31
-210	104	282	-1053	31
-410	-67	106	-661	31
-1112	-130	248	-625	31
-1121	-97	114	284	31
-939	-93	-70	507	31
-1177	-86	-46	215	31
-1733	13	-91	509	31
-1452	36	-179	47	31
1806	37	-269	85	31
2661	49	-366	144	31
1007	14	-415	-484	31
1052	31	87	-432	31
542	48	1136	-905	31
632	-17	1748	373	31
-94	-92	937	2884	31
-3633	-72	-440	2947	31
-4000	54	-1488	1014	31
56	151	-984	-1332	31
2299	170	278	-1514	31
1024	108	59	-370	31
727	-12	-405	-162	31
1075	-51	-643	-615	31
2289	-87	-277	-72	31
2113	-8	56	-314	31
2226	249	-272	-1833	31
814	362	178	-2213	31
-445	100	521	-1479	31
417	-346	264	76	31
1111	-423	-116	1559	31
1329	-348	-433	1379	31
126	-259	-183	447	31
-195	-11	154	1237	31
-741	-6	-29	1541	31
-422	49	-520	266	31
27	173	-428	-91	31
149	112	670	290	31
-122	107	1328	-238	31
-1073	18	749	23	31
-220	-22	-122	933	31
285	46	-892	332	31
-217	129	-659	-394	31
-1283	175	660	-918	31
-746	106	1272	-1727	31
209	16	783	-3579	31
-122	-132	219	-2289	31
365	-185	-62	1459	31
264	-95	-780	2603	31
230	-22	-868	1782	31
387	-9	-445	933	31
32	21	-317	1278	31
82	79	192	-666	31
-13	24	-15	-968	31
-359	-1	-490	325	31
-467	41	-697	-913	31
-262	7	-85	-1736	31
-496	-22	667	-1802	31
-596	33	342	-186	31
-192	113	340	197	31
-210	69	342	1553	31
-339	-16	-84	2832	31
-352	9	-779	446	31
-338	21	-1167	-261	31
-247	-5	-654	-175	31
12	35	-76	1423	31
329	86	64	2158	31
-741	104	240	-395	31
-2551	101	553	-605	31
-2751	24	690	-1181	31
-732	-32	1049	-1589	31
1848	156	1577	-478	31
1353	292	1340	1033	31
-80	88	-66	2415	31
433	-102	-1182	607	31
1482	-102	-1277	-605	31
2125	66	-715	-1347	31
741	209	222	-1921	31
-498	67	483	-705	31
-1001	-147	259	-1012	31
-1350	-225	96	-522	31
-865	-539	102	207	31
-756	-789	-51	241	31
700	-393	-541	642	31
2191	47	-458	940	31
1349	262	-257	1073	31
759	325	109	-510	31
952	117	404	-1692	31
261	-194	221	299	31
-337	-323	-322	2315	31
-1039	-49	-605	420	31
-1159	244	-56	-697	31
368	130	88	-701	31
1376	-77	371	198	31
680	-107	609	254	31
-153	-55	461	-249	31
-620	32	220	588	31
-115	67	170	-134	31
830	82	1110	-450	31
-582	91	1323	-468	31
-1243	85	-111	-363	31
620	150	-1501	-540	31
1873	137	-1887	-429	31
26	111	-1400	-1179	31
-1668	135	79	-1242	31
-914	71	1192	-482	31
-316	29	1487	72	31
911	-11	881	2898	31
484	-47	-678	3119	31
-144	-52	-1512	931	31
142	-44	-1584	-399	31
-505	71	-673	-1698	31
-234	132	475	219	31
275	86	337	1091	31
764	-11	-207	-108	31
215	-49	-482	124	31
-352	-41	-468	-751	31
-57	-86	195	-61	31
-231	-44	1129	-211	31
-522	10	1433	-1063	31
-485	-11	1245	-804	31
-540	-84	581	-945	31
-766	-54	-2	-123	31
573	72	-41	49	31
804	61	55	-431	31
-220	46	-234	355	31
75	56	-802	1019	31
-340	71	-811	4	31
-204	54	-660	-537	31
240	-2	-285	271	31
-445	57	-4	1273	31
-224	159	147	818	31
229	160	351	793	31
-106	-15	371	883	31
-591	-152	341	931	31
-398	-78	61	136	31
951	-7	151	-553	31
913	-133	-147	197	31
-156	-190	-574	-520	31
-443	-23	-236	-955	31
-1529	46	69	-1091	31
-570	35	483	-356	31
811	-19	372	-950	31
-290	-63	-299	-1570	31
-298	-32	-783	-1177	31
204	-21	-673	-1565	31
95	-25	-302	742	31
109	-40	-105	2850	31
558	1	587	2464	31
-245	-18	699	949	31
-475	-36	844	-648	31
934	66	1074	-440	31
-567	155	-182	51	31
-3683	177	-1053	-129	31
-3737	120	-1223	465	31
472	80	-1180	-42	31
2427	-4	-239	-303	31
1492	-122	357	95	31
2325	-126	468	-589	31
1472	-99	610	67	31
82	-40	383	172	31
599	-37	185	179	31
951	-69	56	63	31
1044	68	428	-582	31
849	103	776	-796	31
460	-39	446	-1417	31
438	-119	410	-1060	31
560	-122	259	-614	31
262	-72	161	818	31
92	-34	289	3121	31
-69	50	-761	3226	31
-463	142	-1190	1652	31
57	149	-815	-452	31
149	116	-957	-1834	31
-127	42	-390	-2163	31
336	85	200	-1117	31
274	292	315	-375	31
-808	320	178	-95	31
-1238	89	75	995	31
-325	-215	97	784	31
-200	-452	242	178	31
-184	-265	606	-602	31
29	-9	887	-399	31
-209	-72	676	193	31
-205	-46	-97	102	31
-215	27	-689	315	31
49	62	-645	-114	31
-234	81	-12	-130	31
-708	35	299	-303	31
-305	24	272	-354	31
-139	24	165	111	31
-184	21	-151	214	31
-2	-5	-159	-149	31
-46	16	-287	-793	31
-112	96	-551	-800	31
-162	157	-370	44	31
-151	242	-364	816	31
-115	205	-460	99	31
-152	-122	77	-117	31
-25	-231	961	-235	31
11	-79	1364	-1364	31
102	-311	1420	-210	31
110	-528	1353	1560	31
-277	-304	170	2264	31
-591	-15	-871	1059	31
-199	55	-1273	-1842	31
329	76	-1601	-894	31
-278	148	-1067	250	31
-1292	181	-441	10	31
-512	155	27	2351	31
154	52	766	318	31
-581	-68	798	-1446	31
-161	-49	143	-339	31
-2007	140	91	-1350	31
-2414	147	-119	-736	31
693	54	-104	-122	31
1878	41	338	1868	31
2480	-36	-254	2437	31
933	-27	-727	935	31
-429	49	-342	1171	31
-557	76	-324	-598	31
-1328	117	-265	-936	31
974	134	385	-881	31
3444	62	466	-1119	31
2058	-41	953	384	31
1490	-87	1666	137	31
1172	-67	667	-176	31
340	-76	-561	-221	31
648	-80	-1639	-377	31
101	-16	-2046	-1293	31
52	-6	-628	-1835	31
47	-5	-1	-1745	31
53	76	207	-171	31
-53	109	495	2331	31
-537	15	-89	1041	31
-813	-22	183	-310	31
-813	40	573	12	31
233	43	776	-610	31
309	-37	962	-171	31
-204	-167	540	1129	31
-139	-180	-193	1752	31
-179	-21	-876	1024	31
-523	110	-625	264	31
-492	77	-388	345	31
-260	7	-377	-305	31
-614	-14	137	270	31
-428	-22	243	-334	31
-72	47	412	-1069	31
-136	139	916	-43	31
-396	77	1041	-257	31
-334	-38	911	38	31
-445	17	485	-233	31
-831	58	-601	-144	31
245	53	-1133	37	31
730	24	-558	339	31
-151	-67	-313	580	31
-17	-87	54	179	31
-278	-129	46	582	31
-575	-76	-564	-262	31
-207	27	-252	-1405	31
-906	61	245	-1319	31
-323	66	-69	-334	31
225	27	-285	-867	31
-4	21	113	-221	31
641	-11	175	1201	31
-46	44	261	208	31
766	102	35	-142	31
662	-49	-536	39	31
-214	-116	-341	-43	31
116	-112	59	-718	31
-631	-60	709	-847	31
984	105	1077	-631	31
1353	2	447	-16	31
555	-110	-338	1237	31
599	-52	-806	1810	31
133	3	-766	987	31
-80	31	-133	-276	31
-775	-118	324	-563	31
-616	-114	508	-848	31
119	142	775	-1146	31
305	214	1188	-1019	31
9	58	721	300	31
-101	-125	-881	2500	31
-195	-37	-1581	3558	31
-16	200	-1657	805	31
317	127	-1055	-372	31
-204	54	-12	404	31
-971	108	36	-1956	31
-1403	39	299	-764	31
-169	59	488	399	31
1144	107	235	-544	31
775	0	-91	-404	31
266	-53	168	-1723	31
282	-145	679	-1267	31
510	-323	117	-593	31
626	-225	525	-34	31
-389	5	968	977	31
-2243	-1	177	918	31
-2318	-23	-372	810	31
-1667	44	-442	1494	31
-29	39	-112	2602	31
2161	85	77	762	31
1397	132	251	-700	31
467	62	-34	-455	31
-505	-15	-393	-532	31
-1151	7	165	-290	31
725	17	1075	-753	31
1340	-8	1294	-627	31
972	-13	639	-426	31
918	-26	-337	-249	31
443	2	-1569	-236	31
122	17	-1755	-86	31
-22	44	-1053	-61	31
-14	52	-493	-332	31
-386	23	89	215	31
-807	23	225	-718	31
-1149	5	348	-835	31
-349	-19	646	-625	31
1154	-30	645	-953	31
720	-31	335	579	31
347	-49	-88	1858	31
349	-74	-380	1210	31
-19	-82	-340	-1110	31
36	-67	18	-1051	31
-232	14	139	313	31
-323	62	141	304	31
-418	27	205	-169	31
-292	29	111	588	31
-215	80	67	2720	31
-223	167	316	1094	31
168	142	239	-728	31
331	12	-74	-184	31
297	-7	179	-706	31
-63	-11	362	-386	31
-237	-9	193	-264	31
-256	3	-226	-576	31
-249	-1	-625	-74	31
-247	37	-511	431	31
-141	62	-573	490	31
189	84	-762	-289	31
80	41	-352	-466	31
146	-132	52	-473	31
170	-307	120	-286	31
29	-291	190	59	31
-12	-86	152	-326	31
-118	19	34	-156	31
69	6	-37	-78	31
11	183	400	-300	31
-59	282	991	-406	31
218	72	1158	357	31
-40	-109	742	1683	31
-372	-76	-651	687	31
-35	112	-1281	-1039	31
-249	122	-224	-297	31
-375	46	482	520	31
11	41	67	-478	31
-784	22	-370	-578	31
-1751	54	-404	-526	31
-1819	32	-227	-208	31
-222	38	131	1362	31
1382	111	254	1244	31
202	227	239	-104	31
17	278	187	337	31
1454	229	-180	344	31
1185	207	-157	-338	31
891	7	-31	-203	31
627	-381	165	-283	31
449	-613	741	184	31
488	-313	757	-175	31
-591	-7	552	-716	31
-738	-337	393	-606	31
119	-677	-350	-32	31
164	-426	-1270	555	31
-290	57	-871	-938	31
-148	150	192	-1527	31
317	115	773	94	31
320	198	594	1565	31
-183	185	-935	164	31
-122	169	-1999	37	31
303	164	-1708	2051	31
-202	189	-209	222	31
-422	140	1074	375	31
-220	65	874	62	31
36	84	709	-602	31
176	24	422	149	31
29	-29	180	-1003	31
-193	-26	62	-790	31
-118	-16	192	-896	31
-220	-11	434	-6	31
-1441	0	146	1296	31
-914	1	-67	1155	31
1284	-9	-324	440	31
1435	22	-378	545	31
730	36	-569	-101	31
489	44	-284	-743	31
44	62	369	-436	31
91	68	520	-575	31
173	67	360	110	31
31	49	-45	248	31
14	-16	28	-262	31
21	-131	-3	-602	31
-22	-209	-76	-281	31
-102	-180	-73	-350	31
-73	26	-82	330	31
-44	302	74	295	31
-51	340	67	-26	31
-77	133	81	332	31
-127	-78	71	-182	31
-267	-283	186	18	31
-284	-322	274	-226	31
-187	-141	212	-313	31
-184	-28	44	-828	31
-164	58	4	-909	31
-129	99	214	-41	31
-134	-1	255	668	31
-275	-20	-83	1439	31
-316	-9	-380	574	31
115	-15	-363	772	31
382	36	-352	854	31
223	61	18	-625	31
186	52	177	-1025	31
-60	-18	-175	-1110	31
-163	-74	-407	405	31
147	-19	-804	1616	31
335	59	-791	211	31
106	89	-52	-989	31
-468	62	461	-152	31
-449	56	322	15	31
-101	23	-32	-422	31
-137	-47	-90	-29	31
28	4	58	-198	31
263	41	210	571	31
114	84	309	520	31
-573	175	321	-147	31
-1383	179	254	22	31
-600	51	130	-552	31
330	-234	162	-848	31
-22	-240	522	-821	31
624	35	555	52	31
1264	25	-75	1452	31
816	-190	-629	1184	31
-84	-182	-604	-3	31
-490	101	47	-16	31
155	169	647	-43	31
-257	-12	505	-495	31
-269	-56	103	570	31
558	39	-239	673	31
183	104	-538	-714	31
-219	-65	-458	36	31
-135	-121	-315	505	31
172	176	520	-1091	31
550	408	1503	-1647	31
527	355	984	-1070	31
249	116	-143	1624	31
388	126	-1571	3581	31
413	272	-2067	299	31
147	-56	-648	-1636	31
-27	-483	151	-262	31
-214	-79	-65	-671	31
17	312	-297	294	31
-114	-169	-427	583	31
-306	-496	82	-171	31
-347	-410	314	204	31
-359	31	209	-409	31
-46	46	207	-197	31
-197	-337	33	-568	31
-265	-253	167	-320	31
-15	-314	455	54	31
57	-114	731	-81	31
-258	97	817	50	31
-915	24	392	-500	31
-673	111	-198	-355	31
152	79	-243	-6	31
226	118	-31	190	31
364	96	126	195	31
-289	187	295	573	31
-809	392	247	78	31
813	264	267	-871	31
1141	5	19	-1040	31
592	-145	-465	-943	31
600	-291	-415	773	31
116	-347	-36	2369	31
246	-87	142	651	31
52	20	41	-1062	31
-45	-32	-390	-1301	31
-109	57	-541	-856	31
-176	92	-171	2204	31
120	62	-48	2070	31
-507	-3	269	-704	31
-408	56	743	-375	31
17	161	398	379	31
-109	115	-445	1276	31
167	77	-702	570	31
-104	101	-175	-1038	31
-232	114	143	-311	31
251	84	251	-223	31
320	29	151	-407	31
260	7	-87	-555	31
263	29	29	-526	31
189	31	-56	-98	31
99	34	-123	-307	31
141	19	-121	-192	31
53	-19	-157	-345	31
-71	0	-2	-400	31
-66	2	-27	-114	31
-126	-21	-180	475	31
-164	-30	-184	722	31
-150	-32	59	728	31
-52	-16	333	425	31
-49	-19	508	-282	31
-162	-37	406	324	31
-137	-17	96	322	31
-164	73	-84	-459	31
-174	67	-242	-568	31
-133	-61	-124	-214	31
-181	-57	-1	-127	31
-102	-32	-27	-76	31
-17	-38	20	-34	31
44	-8	1	-209	31
61	-24	34	-41	31
86	-36	45	-54	31
129	-20	63	129	31
-40	1	57	24	31
-108	-112	27	-54	31
-110	-286	7	39	31
-185	14	21	-154	31
-159	431	110	-512	31
-115	172	334	-698	31
-109	-270	578	-506	31
-84	-231	389	0	31
-6	90	31	1579	31
46	142	-504	1925	31
46	76	-911	1086	31
43	172	-548	364	31
36	155	-312	-883	31
-19	129	-305	-881	31
-59	385	99	54	31
-46	627	141	505	31
155	352	-51	113	31
417	-45	59	-804	31
226	-215	94	-851	31
31	-436	336	-234	31
156	-604	625	2	31
-221	-678	598	-704	31
-628	-528	470	-1014	31
-335	-224	231	521	31
-102	41	-181	232	31
-77	403	-62	624	31
-141	423	-240	3309	31
147	131	-638	46	31
556	-229	-176	-791	31
276	-435	-973	1504	31
-422	-54	-1392	-463	31
-1059	221	-643	-270	31
-513	162	-605	14	31
-345	265	-410	-56	31
-477	139	137	-1214	31
774	55	746	-957	31
1480	422	722	452	31
1154	356	523	-54	31
-259	-120	443	-77	31
-498	-363	377	19	31
730	-404	447	36	31
785	-340	260	-459	31
543	-282	-67	92	31
-19	-128	-136	-99	31
-254	56	66	-39	31
21	61	184	237	31
225	50	370	-558	31
523	36	355	-377	31
-99	-6	381	-279	31
-500	27	460	109	31
-31	52	174	208	31
151	62	-12	8	31
4	12	-121	-26	31
-163	-66	-263	-99	31
-9	117	-300	66	31
117	350	-324	86	31
-90	244	-325	-37	31
-203	-11	-67	-532	31
-140	-105	190	-407	31
-181	-50	20	26	31
-94	-48	-70	815	31
335	-22	-112	1604	31
-151	65	-290	222	31
-640	167	-269	-834	31
-15	275	-162	-489	31
-201	72	142	-619	31
-1242	-164	225	-440	31
-1909	-145	96	287	31
-645	-140	302	744	31
145	-44	381	748	31
-189	-1	59	665	31
924	2	-440	132	31
1209	50	-147	-751	31
1397	-16	457	-808	31
900	13	673	-95	31
161	29	779	575	31
528	31	44	756	31
236	69	-699	953	31
102	51	-905	21	31
-593	49	-914	-550	31
-194	42	-494	558	31
360	92	-315	-152	31
-59	93	-499	-462	31
525	45	-319	-732	31
-217	153	94	-1042	31
-1096	76	326	-430	31
-126	-265	453	-347	31
638	-342	395	198	31
475	-157	197	-86	31
349	-1	-177	-582	31
397	16	24	-137	31
250	-50	402	1517	31
4	-18	321	798	31
-143	39	504	-820	31
-224	27	248	528	31
-163	31	-140	1059	31
265	85	-327	393	31
76	113	-179	-99	31
-591	39	405	20	31
-203	-121	644	-43	31
28	-143	1110	-476	31
-320	-19	932	-1317	31
-352	-37	222	-1514	31
-578	-85	-376	547	31
-532	-49	-1309	1420	31
-288	-33	-1250	137	31
69	-26	-658	379	31
339	107	-407	1034	31
235	229	344	-269	31
412	-10	791	1584	31
79	-194	127	688	31
-280	31	-408	-2637	31
-236	247	-383	662	31
-266	206	-922	1563	31
79	210	-1521	-917	31
265	244	-926	-1468	31
144	59	-97	-254	31
325	-203	328	116	31
26	-149	566	-669	31
-907	44	581	-507	31
-522	-62	551	-523	31
197	-145	422	-409	31
287	-313	256	-316	31
61	-315	217	215	31
-890	42	523	627	31
-410	36	799	660	31
902	-1	390	780	31
762	58	-257	424	31
438	36	-338	-685	31
-5	83	253	-1478	31
-869	25	327	-1486	31
-380	7	316	-735	31
500	77	496	1123	31
430	101	192	1051	31
176	74	84	1269	31
-569	33	-219	2136	31
-1834	27	-351	155	31
-1057	99	-68	-986	31
904	260	-44	-1412	31
660	229	-82	-1321	31
644	19	-117	11	31
-205	-95	-343	2021	31
-982	-219	-642	2451	31
441	-440	-439	-227	31
868	-498	208	85	31
1437	-106	575	252	31
572	268	542	-645	31
-442	239	139	-454	31
177	61	-122	-914	31
-115	-36	98	-42	31
-775	42	165	377	31
-462	32	98	443	31
876	-5	49	148	31
788	21	-346	-202	31
23	-9	-491	-253	31
-946	-41	52	-492	31
-1803	-39	71	-1332	31
-662	34	-8	-1444	31
602	170	-37	-291	31
1461	353	-535	-128	31
1343	309	-525	196	31
699	134	-435	392	31
712	-2	-370	568	31
-44	-253	-67	480	31
88	-414	204	172	31
350	-334	273	144	31
-51	-99	112	-28	31
147	22	-44	358	31
-45	103	-146	258	31
-96	150	-21	-253	31
-305	-27	263	-49	31
-270	-120	357	-45	31
-98	-94	316	-99	31
-279	-82	169	189	31
-146	-49	13	67	31
-165	-29	99	120	31
-124	-12	247	-419	31
-78	-14	518	-793	31
-53	-24	284	144	31
-54	-6	-263	1153	31
-67	41	-487	1514	31
-72	102	-652	314	31
-200	119	-32	-670	31
-398	97	574	-863	31
-741	81	335	-918	31
-442	47	157	-287	31
228	23	-4	144	31
289	16	-199	937	31
154	-15	-67	858	31
67	-10	316	-703	31
-92	36	721	-1159	31
-86	81	552	-476	31
-34	46	-79	1424	31
12	-20	-849	2251	31
26	41	-1268	744	31
-50	84	-530	-386	31
23	63	46	-1222	31
70	36	-6	-1219	31
21	-49	47	-683	31
-39	-81	51	164	31
-41	-59	249	780	31
-2	-56	643	-487	31
-129	-43	901	-1833	31
-117	-2	920	-1821	31
19	4	415	77	31
60	-14	-450	2238	31
25	67	-499	2019	31
50	137	-34	1589	31
-182	106	-310	641	31
-427	64	-753	-650	31
-27	-57	-850	747	31
124	-119	-1737	992	31
31	81	-1586	-928	31
-562	225	-18	-1945	31
-1021	61	132	-1485	31
65	-122	190	-129	31
-129	-21	189	658	31
-2244	52	79	426	31
-1134	-34	547	212	31
1851	-9	428	-100	31
1558	-132	313	-382	31
779	-169	332	-134	31
-269	17	395	136	31
-252	114	435	-14	31
1266	388	345	-362	31
441	419	506	-647	31
794	2	653	-624	31
713	-287	349	-179	31
-322	-403	-127	426	31
99	-362	-443	1023	31
398	-164	-521	472	31
646	62	12	-312	31
-64	152	417	4	31
-300	244	257	132	31
-972	366	190	-319	31
-903	268	335	-380	31
862	64	611	-231	31
259	-104	509	-14	31
-173	-284	6	490	31
567	-401	-400	395	31
673	-228	-767	200	31
385	-102	-736	244	31
-52	-209	-405	-18	31
36	-284	-375	-189	31
-61	-250	-57	51	31
-177	-57	284	216	31
-223	52	237	-271	31
-125	270	215	-131	31
111	486	-34	-6	31
-23	365	-150	-528	31
-72	275	-31	-357	31
-193	76	71	-24	31
-158	-233	137	-15	31
62	-374	77	196	31
-101	-224	13	713	31
-244	11	-1	213	31
93	51	42	-220	31
119	60	29	16	31
-214	-42	15	-180	31
-307	-86	44	-194	31
-485	-51	60	-209	31
-272	-42	46	96	31
94	112	-11	300	31
1	205	-26	300	31
7	179	-13	300	31
131	119	-108	35	31
72	92	-108	108	31
16	91	95	-102	31
10	24	228	-305	31
-72	-52	179	-106	31
-172	-160	11	-41	31
-153	-162	-319	-1081	31
-115	-36	-261	-2742	31
-172	7	471	-1469	31
-67	30	671	2642	31
-27	30	-58	4000	31
-55	39	-658	1327	31
116	98	-645	-478	31
-22	99	-160	-367	31
-69	53	157	-255	31
134	19	-230	168	31
72	26	-526	280	31
73	44	-510	508	31
-29	41	-209	-382	31
-183	6	118	-794	31
-100	5	-4	-337	31
-80	1	160	-653	31
-182	-71	184	-352	31
-137	138	-36	-220	31
-303	348	35	-261	31
-818	-48	164	-76	31
-204	-504	322	171	31
639	-313	305	302	31
498	92	378	-92	31
190	139	420	-575	31
-475	97	333	-385	31
-713	37	413	718	31
-84	-51	-44	1093	31
-11	-96	-516	416	31
-164	-126	-128	222	31
224	-88	388	-308	31
596	-24	907	-986	31
1180	111	895	-1209	31
794	139	-221	-264	31
282	91	-1169	1319	31
-339	85	-1149	711	31
-996	30	-882	81	31
48	-6	-643	152	31
578	9	-468	-386	31
711	65	-2	-276	31
603	62	458	-179	31
122	12	372	-219	31
-59	-76	192	109	31
37	-116	74	131	31
284	-5	54	49	31
69	-62	-16	-540	31
-66	-219	32	-853	31
-430	-170	139	-624	31
-531	18	51	-77	31
-7	256	69	1256	31
443	359	322	1460	31
150	338	319	507	31
-172	386	210	181	31
-557	132	224	92	31
-1446	-313	70	-329	31
-83	-468	76	-456	31
942	-372	-66	-260	31
-62	-21	-191	-74	31
596	141	-51	-51	31
542	31	64	-31	31
-20	-24	212	74	31
359	-113	201	146	31
-486	-213	147	261	31
-1353	-252	-94	264	31
-627	-102	-319	-100	31
1284	-44	-311	-620	31
899	-46	-229	-547	31
-5	87	-25	-184	31
-185	74	66	-116	31
-953	76	151	-89	31
19	129	137	160	31
691	317	67	389	31
376	486	176	153	31
274	280	254	27	31
87	74	162	81	31
99	-159	-41	27	31
228	-444	-260	93	31
407	-485	-390	-30	31
56	-293	-192	-254	31
-575	-64	59	-405	31
-342	-137	112	-239	31
-225	-57	147	493	31
-195	342	304	1432	31
77	241	513	654	31
-217	-200	509	-1101	31
-91	-244	324	-1299	31
-49	91	-196	-1118	31
-210	202	-779	-353	31
-133	129	-1081	1283	31
-139	134	-980	2641	31
-32	147	-241	1431	31
-7	150	-14	-609	31
92	69	-227	-675	31
56	40	-39	-1041	31
-23	-16	-136	-1020	31
171	-36	1	-925	31
186	54	330	259	31
-142	94	250	2251	31
-126	46	8	1515	31
154	-21	-165	-694	31
107	31	279	-1755	31
-203	-7	689	-1038	31
-1114	-102	556	-798	31
-1992	-72	505	-431	31
-1640	107	696	76	31
14	116	980	423	31
1423	-105	621	1085	31
1743	-9	-202	1382	31
1275	132	-1040	1205	31
447	109	-1776	-728	31
198	112	-1211	-1029	31
202	29	-244	-496	31
184	-40	96	-1011	31
137	-64	255	-5	31
312	-97	158	-18	31
396	-76	157	553	31
-359	32	381	1860	31
-490	184	805	404	31
-409	212	768	-431	31
-433	66	58	86	31
247	-16	-697	46	31
273	-66	-922	-946	31
112	-204	-198	-1130	31
181	-192	304	-332	31
118	-31	218	-487	31
-2	-51	199	-572	31
-13	-140	449	-131	31
-69	-22	646	1371	31
-209	-53	372	1866	31
25	-209	-214	1837	31
-49	-194	-1049	304	31
-110	7	-1113	-1652	31
-406	130	-210	-606	31
-1119	49	371	-651	31
-890	37	369	-357	31
655	-9	179	-69	31
1274	41	71	-206	31
726	122	20	125	31
458	30	-21	-106	31
-686	51	15	105	31
-675	77	139	-25	31
216	-7	167	-8	31
72	-9	131	-367	31
141	11	171	-720	31
124	-33	174	-795	31
93	201	220	-352	31
-4	451	202	1043	31
0	42	29	973	31
0	-394	-43	240	31
-299	-342	60	129	31
-38	-276	107	-233	31
324	-187	-244	45	31
149	36	-519	347	31
-428	74	-500	280	31
-1397	49	-627	319	31
-3007	43	-265	460	31
-1873	-4	169	585	31
1432	47	158	416	31
1751	27	79	207	31
1710	11	112	-819	31
1136	56	223	-714	31
-102	48	52	252	31
552	52	5	1	31
443	59	175	-75	31
-26	60	528	60	31
136	53	714	131	31
302	69	343	-158	31
350	64	-61	-527	31
171	32	-382	-599	31
67	1	-583	-539	31
-5	-29	-397	-242	31
-74	-66	-37	103	31
-134	-133	137	479	31
225	-139	207	642	31
159	-102	47	-91	31
-231	-72	-11	-309	31
-29	-7	62	33	31
-315	59	41	-1001	31
-1000	57	440	-1187	31
-450	37	498	-407	31
721	57	-116	400	31
475	54	-698	1555	31
89	61	-493	926	31
23	95	203	339	31
-209	109	43	1419	31
-156	99	-345	274	31
-340	66	-567	-959	31
15	43	-714	-449	31
53	55	-170	-200	31
-237	154	207	610	31
119	216	111	35	31
215	167	102	-136	31
83	144	52	104	31
-159	-112	193	-473	31
-67	-482	312	-141	31
117	-528	-8	-386	31
-92	-346	-166	520	31
-189	-109	10	1018	31
-438	44	465	-483	31
-833	159	1000	-752	31
-625	136	777	-1	31
112	29	1	357	31
569	-11	-940	513	31
446	-98	-1494	-497	31
-175	19	-204	-1788	31
-457	172	1391	-1549	31
171	29	1132	-1044	31
237	-139	265	1374	31
-56	-40	-505	4000	31
634	195	-1203	2016	31
683	195	-785	-1212	31
50	84	-39	-885	31
335	42	-128	-810	31
-219	40	-27	-1237	31
-1848	44	154	-915	31
-1806	150	212	-523	31
-274	410	467	267	31
786	511	515	955	31
1137	399	277	518	31
1160	283	-106	-197	31
794	-21	-220	-60	31
317	-500	-271	-107	31
95	-665	-141	2	31
146	-742	-6	-11	31
199	-694	-23	-154	31
141	-303	197	9	31
53	-100	252	61	31
78	-69	155	68	31
19	-52	-17	-176	31
9	-3	-159	237	31
27	86	-5	399	31
-229	93	275	-224	31
-254	74	340	-230	31
-97	75	419	262	31
-90	71	329	584	31
-137	77	-347	147	31
-127	82	-663	-382	31
18	21	-673	257	31
48	85	-456	723	31
-249	171	50	240	31
-226	133	-27	-170	31
114	160	-212	-79	31
84	177	-38	52	31
-48	157	390	-172	31
-34	201	428	79	31
14	283	137	209	31
-386	111	81	-481	31
-1097	-298	81	-721	31
-698	-347	168	-547	31
605	-121	170	-670	31
585	-112	30	-483	31
294	-56	-126	-75	31
445	62	-252	403	31
57	-82	-285	375	31
141	-139	6	-64	31
86	-11	230	299	31
142	136	195	-44	31
74	322	64	-68	31
-208	411	28	575	31
-114	285	382	465	31
-421	1	512	483	31
-446	-246	524	-477	31
-507	-257	195	-600	31
-316	-47	-310	181	31
227	34	-365	568	31
497	-72	-828	825	31
487	-44	-731	202	31
42	-42	-14	1345	31
70	-198	-6	250	31
103	-152	86	-805	31
44	-12	530	-73	31
163	48	785	-706	31
26	177	254	241	31
-32	51	-331	-7	31
-24	-252	-696	-209	31
31	-73	-857	-675	31
-77	353	-84	-793	31
-283	342	194	-238	31
-649	26	-43	-128	31
-443	-128	-229	-662	31
267	-229	-95	-1559	31
122	-158	164	87	31
284	123	-4	420	31
603	174	229	1054	31
364	125	263	1296	31
-221	21	108	-7	31
-899	-147	-109	-118	31
-1006	-58	-479	264	31
-640	81	-564	1532	31
310	72	-447	1242	31
702	16	-150	-109	31
309	-105	395	-1029	31
729	-248	794	-950	31
1167	-242	397	-959	31
668	-50	338	-94	31
463	17	530	732	31
69	-32	-144	136	31
-113	-9	-729	142	31
68	59	-300	-465	31
-177	188	146	-566	31
-42	182	-107	-670	31
-144	38	96	-112	31
-107	4	664	952	31
-54	-8	530	297	31
-134	-135	376	75	31
2	-167	619	275	31
4	-12	-1	-41	31
-16	113	-445	-592	31
-148	76	-407	-1055	31
-32	43	-529	-1174	31
-86	67	191	-953	31
-194	-51	-82	-500	31
-191	-124	-713	-242	31
-223	54	-396	1820	31
-34	256	-368	3669	31
-145	171	-366	2114	31
-118	71	-82	-451	31
-43	194	546	-1091	31
-161	204	694	-430	31
-39	52	545	-219	31
-65	130	432	-26	31
-71	740	180	-381	31
26	1575	-5	-662	31
14	1687	-257	-349	31
33	716	-298	117	31
-69	-619	-302	469	31
-58	-1606	-109	274	31
42	-1534	115	-52	31
-54	-747	295	-308	31
-31	-501	207	-565	31
-89	-781	30	-643	31
-142	-774	718	-322	31
2	-764	1219	379	31
-33	-763	839	365	31
-15	-456	47	245	31
34	-387	-833	542	31
-45	-41	-1524	-336	31
-102	465	-1359	-390	31
-50	303	-69	557	31
29	7	581	553	31
26	39	146	761	31
109	303	-241	522	31
52	392	-177	-149	31
-269	220	104	-528	31
-210	203	149	-565	31
334	269	131	626	31
384	96	-277	404	31
188	16	-734	-1387	31
205	143	-653	-1584	31
-89	199	-398	-498	31
-353	227	39	875	31
-88	238	183	1287	31
-327	209	171	325	31
-546	140	372	-629	31
629	119	287	-1156	31
157	89	-101	-493	31
-914	31	-268	472	31
52	26	-23	821	31
278	53	262	329	31
472	66	630	-602	31
728	27	830	-230	31
223	27	443	2	31
260	21	47	11	31
134	27	1	-191	31
-132	37	13	-449	31
-95	7	172	-134	31
91	76	275	27	31
169	196	252	260	31
114	210	42	35	31
68	62	-435	441	31
-89	-67	-509	602	31
-75	-235	77	290	31
130	-417	1027	631	31
180	-260	1107	1281	31
-758	-62	373	1352	31
-1929	-44	-39	148	31
-881	-2	-242	-959	31
1149	-42	-733	-907	31
1273	-51	-1767	903	31
930	-65	-2431	-591	31
544	-205	-1969	-1642	31
-55	-26	-696	382	31
82	545	538	151	31
-135	947	865	162	31
-161	872	902	-280	31
-63	377	1155	-133	31
-115	-49	758	-118	31
11	-377	89	-684	31
-39	-620	158	-367	31
14	-229	289	-522	31
-36	24	144	-220	31
38	-169	-38	29	31
135	-356	13	62	31
60	-463	121	341	31
-29	-251	6	580	31
-122	-297	222	167	31
-149	-430	-9	-67	31
-117	-71	66	-180	31
-34	134	635	-598	31
-86	106	617	-201	31
-176	169	632	513	31
-125	202	31	450	31
-82	132	-615	-152	31
-81	-7	-738	440	31
1	-131	-846	1060	31
5	-152	-193	306	31
59	1	243	-484	31
-16	118	175	-501	31
-99	59	24	-56	31
2	46	-471	478	31
-44	62	-232	994	31
-16	46	154	-297	31
-6	41	-5	-1057	31
-37	44	-235	-448	31
-87	60	-266	-125	31
-98	88	-212	360	31
-70	91	-86	519	31
-119	32	-31	1209	31
-54	15	-234	852	31
-10	20	-29	-617	31
36	57	170	-1154	31
76	103	491	-687	31
88	63	831	-345	31
116	33	463	-307	31
129	9	19	-105	31
102	32	-186	-96	31
24	38	-380	189	31
16	22	-269	49	31
-21	47	-99	-202	31
-2	-3	-99	-134	31
45	-8	32	-249	31
-31	19	-22	-131	31
-12	-18	101	607	31
5	-130	290	555	31
-93	-192	481	-358	31
-56	-54	901	-366	31
-7	-12	851	97	31
7	-21	179	1039	31
95	37	-738	510	31
120	40	-1121	-971	31
100	62	-596	-927	31
69	51	200	-871	31
54	46	626	44	31
34	19	368	1016	31
4	-62	-99	480	31
9	-101	-92	1081	31
-37	-106	-475	1610	31
-90	-89	-789	-221	31
-93	-109	-485	-972	31
-60	41	-136	-778	31
-70	283	57	-505	31
-101	308	-169	929	31
-55	373	-201	1201	31
-9	253	-503	203	31
60	-155	-487	-52	31
107	-152	295	-339	31
79	-152	683	-1147	31
126	-314	735	-1022	31
221	161	506	-324	31
-100	264	213	698	31
-728	-375	58	964	31
-495	-477	19	-196	31
127	-161	52	-562	31
250	65	294	-101	31
324	188	553	-540	31
127	282	369	-963	31
44	141	4	-412	31
175	-77	-293	515	31
129	-157	2	2156	31
71	-387	348	3050	31
-44	-395	-261	1086	31
30	-50	-581	-1078	31
22	159	-591	-1321	31
26	140	-557	-1482	31
129	177	-158	-1272	31
72	259	-355	-753	31
65	334	-211	-340	31
43	315	208	127	31
61	249	144	-384	31
4	205	124	-293	31
-79	-139	-147	277	31
-96	-437	-451	462	31
-163	-308	-868	1034	31
-147	-24	-887	548	31
-141	-51	1	-37	31
-107	-166	1044	277	31
-1	-35	2058	121	31
111	-2	2402	341	31
91	6	1247	329	31
-205	-15	-42	51	31
-332	-23	-1045	59	31
-109	32	-1623	-1019	31
267	57	-151	-1049	31
422	106	252	41	31
239	87	-907	-2	31
28	96	-997	-27	31
-93	82	-955	314	31
-27	17	-211	57	31
-14	-75	714	-636	31
-34	-190	1094	-473	31
-38	-254	1173	192	31
-9	-219	570	205	31
73	-32	-81	1293	31
27	117	-654	1509	31
24	231	-846	-976	31
134	351	-456	-1003	31
57	355	188	228	31
-97	200	727	425	31
-43	-44	545	-216	31
-31	-92	-209	-162	31
24	-24	-705	442	31
66	-80	-215	404	31
-15	-51	310	18	31
-76	-1	442	-721	31
-131	-29	894	-292	31
-68	-47	791	-635	31
-24	-85	194	-290	31
-41	2	-96	-26	31
-43	91	-256	420	31
36	93	-566	1597	31
78	166	-798	743	31
3	121	-466	176	31
-54	-175	74	-520	31
27	-262	483	-715	31
127	104	429	-573	31
52	518	-319	-703	31
78	522	-704	483	31
53	12	-69	659	31
-33	-350	-218	-497	31
-45	-381	-1153	-129	31
-52	-259	-1111	1089	31
-22	29	-772	1096	31
-146	-51	-138	254	31
-385	-242	834	-951	31
-294	-150	1055	-1131	31
342	-161	1358	-555	31
533	-392	1794	89	31
175	-438	1564	503	31
-153	-140	256	469	31
-223	291	-2555	159	31
53	694	-3408	-27	31
129	589	-1509	404	31
189	122	-104	-455	31
180	-170	783	-743	31
99	-398	1288	-798	31
50	-553	1455	-983	31
-136	-303	1900	229	31
-104	1	1659	1061	31
-55	-74	868	1365	31
-122	-66	-314	-562	31
-36	204	-1596	-1843	31
5	422	-1327	-652	31
-102	287	-971	-97	31
-96	47	-430	358	31
-9	12	106	164	31
26	-72	-377	124	31
71	-103	91	264	31
82	22	368	-57	31
41	125	288	265	31
23	14	210	1118	31
41	-12	-185	2098	31
52	196	-440	485	31
81	75	47	-597	31
34	70	1183	-861	31
-33	301	1415	-1712	31
-34	311	1005	445	31
-86	348	427	1759	31
-29	205	-506	1946	31
10	-227	-942	1018	31
4	-480	-129	-839	31
-8	-257	-806	-1606	31
-73	-13	-1820	-1339	31
2	13	-1442	-46	31
-18	194	-956	-38	31
-63	209	664	-482	31
21	164	2098	-1670	31
54	179	2242	-795	31
26	-91	1232	222	31
11	-190	-202	1	31
2	61	-1450	2402	31
-1	286	-535	974	31
17	441	531	-967	31
22	533	77	-87	31
-16	245	862	-243	31
-113	-255	229	1091	31
-135	-754	-580	514	31
-209	-987	-640	-530	31
-29	-542	-1082	716	31
244	-172	-1662	-198	31
64	-227	-2156	-232	31
33	-187	-1531	122	31
89	-140	-528	-987	31
59	-119	1416	-933	31
110	58	2602	-435	31
-52	252	1878	377	31
-90	363	1215	830	31
-4	402	174	941	31
31	628	-429	632	31
-19	1050	-279	-30	31
-49	944	-187	-971	31
191	344	107	-946	31
111	-424	-848	-457	31
-106	-1085	-1028	-556	31
-503	-1304	-21	-199	31
-792	-977	866	-610	31
45	-465	2070	-748	31
679	-562	2413	-1029	31
637	-597	1420	-1341	31
507	-77	505	417	31
93	603	-385	3156	31
64	763	-2748	3522	31
76	234	-2507	1677	31
-35	-141	-365	890	31
60	-307	662	-311	31
-28	-297	754	-529	31
-86	116	-1191	-1209	31
0	661	-2572	-1439	31
30	616	-1841	1211	31
-164	288	-327	154	31
-170	250	-259	-922	31
-147	139	399	-479	31
-86	388	2632	-313	31
187	519	3099	453	31
39	137	1498	-309	31
-69	106	-1353	-375	31
-55	83	-1988	-879	31
-83	-178	-704	-1395	31
-7	-365	-457	706	31
-86	-470	-260	1141	31
-157	-396	1008	-587	31
-184	-268	1813	385	31
-409	-61	2078	1342	31
-932	219	1490	700	31
-1094	107	160	538	31
-420	-19	-391	-1167	31
263	-162	-2331	-2071	31
532	-408	-2514	-518	31
902	-158	-611	773	31
819	5	-241	801	31
349	98	-418	-453	31
448	270	1961	-990	31
661	149	3027	-754	31
436	145	-127	179	31
49	280	-1930	2185	31
59	246	-1591	1500	31
38	306	-343	-392	31
-96	302	-665	-1141	31
-129	-470	-370	657	31
-181	-893	38	2205	31
-80	-345	216	-1223	31
-299	140	2517	-2904	31
-269	208	3730	-1449	31
-52	189	2351	-625	31
-82	319	-467	3000	31
108	158	-2227	3216	31
7	79	-3901	-248	31
-9	209	-2971	-1333	31
63	96	-678	-1455	31
37	131	-7	346	31
67	181	199	-246	31
-62	102	141	-7	31
-82	51	398	22	31
-187	-24	-470	-640	31
-287	-192	197	1818	31
-471	-408	1229	1647	31
-967	-460	957	791	31
-942	-459	1297	-349	31
-9	-356	1451	-1662	31
485	17	957	-1650	31
312	431	-917	-865	31
304	473	-1327	883	31
227	288	-356	2016	31
171	239	-1223	687	31
62	86	-1185	-1162	31
116	115	129	-1411	31
81	185	1108	-2268	31
-99	-191	3046	-2116	31
117	-358	2880	-1299	31
74	-116	-224	495	31
-96	55	-2478	3702	31
-48	-22	-2793	2048	31
-102	-152	-354	-734	31
-222	-129	1066	206	31
-315	344	418	37	31
-191	895	683	578	31
40	681	1002	1196	31
-76	292	954	97	31
-265	-264	-422	-366	31
-328	-1131	-1326	-453	31
-453	-1296	-2013	119	31
-389	-992	-1563	457	31
-212	-477	627	756	31
-51	68	1240	63	31
17	131	1087	-1542	31
72	100	377	-2104	31
106	259	-265	-1612	31
-60	393	-509	-430	31
-4	265	-77	342	31
235	279	950	1788	31
346	307	16	2997	31
132	155	-1494	1306	31
-84	267	-812	-374	31
127	107	-449	-668	31
262	-200	-381	-260	31
195	-314	1247	-14	31
134	-303	2644	-214	31
140	98	2139	-387	31
162	423	34	-984	31
-8	283	-904	-1257	31
53	76	-1554	-332	31
102	-68	-2090	191	31
25	-218	-1464	-724	31
140	-95	141	-448	31
122	4	1639	-420	31
335	-2	587	-326	31
369	97	-1340	570	31
247	77	-1137	187	31
137	-26	392	1505	31
-129	-106	-86	1479	31
24	-118	-598	1069	31
68	69	783	591	31
-28	475	1643	-1322	31
-7	465	1192	117	31
93	131	390	48	31
124	63	-247	187	31
-54	-208	-1499	-823	31
118	-382	-1353	-1373	31
184	-240	-214	162	31
1	-210	531	-407	31
49	-292	672	870	31
89	-338	633	437	31
-121	-150	829	473	31
-304	99	-62	594	31
-552	235	-94	-1016	31
-881	232	-465	636	31
-176	234	-639	2362	31
835	240	324	682	31
1132	91	1005	-1128	31
892	71	1163	-1437	31
395	216	86	-698	31
203	121	-548	879	31
-124	-36	-332	-302	31
-314	-134	2	-1692	31
-75	-312	684	-1093	31
-36	-199	1622	-34	31
-107	-130	62	690	31
-140	-202	-1950	-81	31
-220	222	-2124	156	31
-296	322	-1545	895	31
-245	197	-913	-237	31
-218	602	-1207	-670	31
-174	626	-214	1025	31
-122	61	294	1128	31
52	-549	659	409	31
227	-651	1329	394	31
144	-494	905	-386	31
186	-296	1626	-1058	31
213	-89	2156	-1314	31
162	-105	2362	-811	31
96	-67	1570	-282	31
52	-49	-1139	590	31
19	41	-3032	1462	31
-182	134	-3056	622	31
-209	178	-1542	-981	31
-124	174	212	-229	31
-209	81	1869	1257	31
-221	-14	1622	-96	31
-171	-192	-195	-1087	31
-54	-157	-107	-618	31
66	-92	-558	1111	31
-99	-81	-1228	1657	31
-89	-24	-844	562	31
27	-78	-846	-14	31
106	4	-500	-820	31
249	333	-103	-1111	31
115	668	241	-1004	31
84	658	-93	-983	31
-31	366	-936	-473	31
-289	-169	39	888	31
-390	-700	2302	652	31
-234	-722	2337	350	31
100	-440	221	132	31
70	-97	-1127	359	31
464	293	-341	1408	31
706	459	982	447	31
317	6	503	-247	31
319	-453	140	-667	31
96	-315	468	-538	31
-31	-34	122	152	31
84	327	326	201	31
59	453	798	157	31
89	152	-67	-560	31
34	6	-842	-1402	31
23	26	263	-1079	31
-89	82	1435	224	31
-116	104	-1	1524	31
-61	36	-2958	2620	31
-219	1	-2867	1921	31
-232	-115	-656	-1490	31
-4	-116	427	-1954	31
31	59	482	227	31
151	20	209	-515	31
67	-120	933	-1447	31
-207	-119	1735	-1515	31
-38	-96	879	-144	31
-530	-39	-610	1530	31
-965	165	-932	582	31
-151	360	-1220	-541	31
705	176	-1401	-568	31
758	-66	-192	-444	31
490	51	640	277	31
199	-165	-46	868	31
-167	-454	-617	-152	31
-233	-33	243	-76	31
-172	217	1454	320	31
-172	46	2037	-371	31
-129	-87	2021	1119	31
-110	-34	-14	2410	31
-47	81	-2122	518	31
-97	25	-1524	-608	31
-214	52	142	-650	31
-214	59	857	-1104	31
4	53	669	-116	31
127	-6	535	451	31
159	-34	-112	-318	31
282	7	-460	298	31
114	-29	643	1449	31
22	50	900	194	31
41	51	-165	-1802	31
29	62	-684	-1194	31
-120	106	-972	393	31
-270	77	-974	1123	31
-171	48	-801	-267	31
-119	-22	-756	-3662	31
-205	-109	175	-3934	31
-349	-257	615	-787	31
-144	-204	19	3692	31
113	-20	-535	4000	31
225	57	-553	2183	31
372	43	620	1254	31
232	-65	1155	415	31
98	86	-156	-903	31
156	302	-1034	-1185	31
76	114	-109	-445	31
12	-164	772	28	31
87	-163	468	21	31
34	19	955	-491	31
-162	73	1430	-1699	31
-166	-26	999	-1934	31
-8	-166	585	-661	31
-26	-295	-402	1222	31
-142	-225	-1781	3338	31
-171	96	-1838	2321	31
-67	461	-610	-1604	31
87	698	-732	-1434	31
70	640	-460	-1119	31
-12	255	663	-1091	31
155	-24	1637	355	31
373	-331	1645	1635	31
297	-612	-626	2184	31
45	-436	-1482	-284	31
-121	-196	-803	-2538	31
-342	-46	-675	-2917	31
-630	49	-1004	-529	31
-470	69	-934	1236	31
-62	121	1296	897	31
179	320	2035	684	31
220	455	324	395	31
68	129	-397	-73	31
173	-215	-20	69	31
469	-220	668	220	31
405	-225	774	-880	31
168	-141	884	-736	31
196	-109	1206	-700	31
211	-293	1	-598	31
122	-214	-1886	230	31
101	-168	-1622	1662	31
21	-104	-110	2543	31
-52	91	-37	733	31
-151	42	-137	-688	31
-325	38	548	-50	31
-241	31	193	-110	31
-181	119	429	-2007	31
-159	235	1248	-1717	31
155	187	589	-149	31
71	150	-241	53	31
27	284	-743	1189	31
169	701	-374	705	31
-12	396	309	-446	31
-418	-375	-799	459	31
-595	-459	-711	823	31
215	-413	307	404	31
502	-345	-282	-399	31
222	-98	-282	-1066	31
246	43	111	-1217	31
-81	-161	1085	344	31
-273	-529	1396	2900	31
-136	-246	36	2777	31
229	176	-210	-224	31
107	287	-714	-1439	31
-197	309	-1226	-818	31
-91	32	-824	-675	31
-42	-1	-595	-264	31
174	56	-156	-396	31
234	33	747	-79	31
202	161	1364	-64	31
257	77	838	-760	31
122	31	981	-1085	31
26	16	1092	-422	31
-55	-134	-119	866	31
-78	-187	-1367	2009	31
-147	-138	-1703	1558	31
-221	67	-1686	-962	31
-117	266	-1168	-941	31
-220	222	486	-13	31
-185	242	1569	344	31
-134	252	1192	404	31
-299	99	310	-1347	31
-176	84	475	-1019	31
-36	47	1496	-149	31
-19	-41	1504	421	31
46	-22	32	1199	31
117	-6	-1365	545	31
147	17	-2392	150	31
52	111	-2326	-230	31
-96	116	-737	208	31
31	-66	90	707	31
169	-269	262	142	31
112	-265	377	-677	31
154	21	155	-1644	31
113	311	633	-1569	31
2	267	613	107	31
-72	-21	452	1938	31
-86	-122	-197	1459	31
69	-145	-858	-793	31
-41	-406	-621	-870	31
-274	-355	-19	639	31
-60	-63	1125	-149	31
119	1	338	-457	31
85	-11	-99	-755	31
72	-36	-255	-460	31
15	53	-257	1459	31
6	195	473	1081	31
-27	283	801	125	31
64	230	798	-477	31
15	-2	145	94	31
-257	-187	627	-431	31
-228	-129	630	-1924	31
-205	-7	-428	-841	31
-419	-31	-1017	612	31
-460	-24	-236	1865	31
-126	-225	-126	1500	31
225	-301	-775	393	31
528	114	149	-104	31
408	56	849	-140	31
162	-284	691	-73	31
339	-160	173	-883	31
103	114	-375	150	31
-76	186	-654	297	31
37	83	-520	-1114	31
-122	47	-884	-387	31
-89	37	-322	460	31
-41	27	1105	-7	31
-33	36	1432	-305	31
-46	31	1290	119	31
-187	21	91	1293	31
-46	-64	-1079	1510	31
193	-122	-1458	-333	31
1	-57	-1462	-1693	31
-192	120	-590	-1787	31
-257	230	-120	-209	31
-684	180	-11	1046	31
-508	142	470	297	31
375	111	506	211	31
801	100	343	-684	31
743	51	187	-1470	31
290	-66	695	-781	31
-250	-2	1239	-558	31
-336	19	451	312	31
-297	47	-605	1070	31
-252	383	-696	1792	31
250	314	-446	2644	31
601	-77	-623	382	31
307	-76	-954	-939	31
74	-49	-748	37	31
-152	421	-183	-582	31
-124	1231	375	142	31
133	809	891	-2	31
102	-293	891	-462	31
118	-910	568	-42	31
53	-1332	-66	-536	31
39	-1248	-299	-634	31
0	-649	-304	-998	31
-222	-116	87	-456	31
-232	224	1105	-239	31
-168	21	1486	-598	31
-135	-383	1509	122	31
-41	-316	460	963	31
65	-31	-1014	690	31
20	156	-1446	1109	31
-51	250	-1695	997	31
4	200	-976	122	31
26	101	75	152	31
72	22	396	222	31
104	19	197	513	31
58	157	-254	-387	31
31	180	-426	-726	31
6	37	-356	-1358	31
-46	-53	1454	-2018	31
-141	-35	2339	-798	31
-140	42	345	860	31
-14	116	-1085	1852	31
-11	102	-887	61	31
-98	49	17	-164	31
-161	65	639	3993	31
-133	111	103	4000	31
-5	194	-1717	-2129	31
17	363	-1793	-3770	31
16	378	-872	94	31
-71	237	-865	337	31
-56	122	-402	-899	31
63	-8	-274	-72	31
62	-127	-5	-708	31
178	-89	403	-1062	31
179	160	1028	-462	31
76	134	1544	-285	31
17	-32	990	305	31
80	36	773	165	31
123	105	592	-198	31
-34	-103	74	-154	31
-73	-451	77	162	31
-61	-475	251	-31	31
-111	-263	465	-54	31
-168	-82	793	-77	31
6	-27	763	-1123	31
208	-15	786	-1578	31
21	-52	524	-634	31
-71	-60	-556	1342	31
-54	11	-1072	2707	31
12	82	-709	2719	31
98	335	-1157	668	31
18	411	-1409	-944	31
27	157	-1220	-1485	31
32	-43	-1468	-1391	31
-3	-235	-646	541	31
-146	-312	572	874	31
-115	-84	930	226	31
-1	34	-181	87	31
-200	13	-1195	297	31
-130	83	-508	451	31
-122	29	1052	-354	31
-375	16	1790	-234	31
-635	142	1055	-62	31
-776	442	692	-170	31
140	608	443	162	31
990	213	193	-194	31
906	-142	25	-640	31
670	-441	98	-816	31
304	-718	146	-543	31
215	-526	111	186	31
148	-204	226	528	31
18	-76	-90	377	31
9	-46	-102	272	31
-31	-79	56	140	31
-69	-1	122	232	31
-39	189	-44	568	31
34	-24	-64	184	31
-142	-124	-285	-785	31
-181	117	-475	-1061	31
-106	144	-17	-497	31
-128	111	-121	355	31
-99	61	134	905	31
-27	91	899	-258	31
176	96	801	-1162	31
234	47	245	-149	31
34	91	-778	765	31
-61	222	-1849	855	31
-121	642	-1709	429	31
-180	716	-698	435	31
-212	82	472	493	31
-448	-496	530	-721	31
-354	-576	-377	-627	31
57	-374	-51	547	31
204	-265	769	-433	31
436	-37	327	-264	31
397	217	-1466	791	31
72	174	-1343	1968	31
62	89	886	1572	31
154	-27	1521	-1288	31
302	-152	659	-1296	31
84	-137	12	-720	31
-294	103	171	-745	31
-87	375	229	-279	31
166	289	152	-255	31
92	-111	-23	-647	31
29	-387	183	-1382	31
-117	-373	594	-925	31
-230	-328	363	736	31
-32	-98	27	1599	31
-56	69	-259	47	31
-240	21	-219	-340	31
-547	73	124	359	31
-823	39	393	545	31
-369	59	-49	1329	31
143	71	-488	512	31
467	41	-711	305	31
601	69	-738	-81	31
391	78	-122	-662	31
-168	173	418	-394	31
-1255	355	488	-156	31
-1783	580	0	558	31
-1041	417	-363	567	31
144	12	-565	37	31
732	-263	-390	-1032	31
762	-549	305	-845	31
1170	-544	754	-375	31
1216	-230	1146	-214	31
854	167	1434	574	31
928	287	760	-92	31
552	30	-650	-464	31
-4	-207	-1501	677	31
-1337	-413	-1804	227	31
-3957	-319	-748	-1044	31
-4000	55	738	-703	31
-3718	332	490	-95	31
1436	332	189	680	31
4000	314	-57	1624	31
4000	520	-259	2073	31
4000	154	-543	278	31
2779	-398	-1369	-1569	31
1462	-174	-719	-650	31
1045	36	957	-407	31
260	176	1566	147	31
-5	360	1046	852	31
-254	-180	152	312	31
72	-514	-765	-297	31
22	-98	-601	-685	31
-580	-109	255	-344	31
-519	-637	607	-66	31
-850	-837	504	52	31
-831	-285	265	111	31
-885	301	130	69	31
-947	230	16	-30	31
-972	199	-36	-53	31
-1049	172	-106	-345	31
-924	56	-239	-782	31
-1044	83	-265	-480	31
-939	24	72	-119	31
-828	82	847	228	31
-781	84	1139	24	31
-793	70	842	473	31
-750	82	1040	1341	31
-605	31	425	-226	31
-575	69	-1261	-670	31
-454	91	-1695	1434	31
-408	149	-2396	1949	31
-290	291	-2894	54	31
-66	458	-157	-1148	31
-324	497	1833	-341	31
-522	460	1299	-214	31
-115	310	496	-493	31
-152	-180	-586	70	31
-226	-617	-701	357	31
-107	-448	-59	-759	31
-219	186	35	-1587	31
-43	411	51	-1744	31
-2	89	302	-1925	31
49	-304	436	-167	31
64	-786	397	2626	31
161	-756	364	2646	31
-13	-426	584	-207	31
-826	-316	631	-47	31
-1355	77	-51	406	31
-1397	157	-365	337	31
-567	-184	-255	1366	31
267	-112	-179	52	31
-854	298	452	-359	31
-2980	518	234	-197	31
-1546	507	-1398	966	31
2488	736	-1229	1227	31
4000	856	373	-1107	31
3744	383	548	-366	31
2041	-135	407	576	31
795	-214	68	-497	31
-263	-285	-773	-1278	31
-6	-604	-476	-972	31
944	-514	470	58	31
886	-466	851	105	31
712	-926	874	79	31
-77	-944	326	-79	31
47	-392	-232	-309	31
132	232	-274	90	31
-130	454	-401	-281	31
-79	332	-330	-449	31
-246	258	-40	-119	31
-113	193	109	-101	31
-234	224	89	-34	31
-119	212	-11	-549	31
-178	208	26	-1013	31
-369	178	340	-1189	31
-425	-53	693	-778	31
-184	-185	921	1030	31
-271	-94	926	2882	31
-1351	188	319	1878	31
-1390	251	-595	-266	31
-1467	59	-1229	48	31
-2999	124	-1016	-164	31
-3877	345	-299	-503	31
-2709	801	85	20	31
-51	1337	170	1039	31
2446	1181	-351	1672	31
3585	530	-312	141	31
3166	-468	-66	-720	31
1035	-1404	-452	-889	31
-571	-932	-44	-772	31
224	-23	159	-668	31
1	132	400	-354	31
-254	180	192	-192	31
1446	-250	-558	-357	31
2362	-732	-152	182	31
1894	-515	249	295	31
726	-310	324	94	31
1082	-86	177	64	31
755	-135	142	-510	31
-595	-732	434	-1509	31
-833	-760	783	-1079	31
166	16	1002	-309	31
1476	446	612	1406	31
-54	232	-14	2760	31
-2074	124	-478	1073	31
-3909	155	-746	-107	31
-3418	185	-809	287	31
-155	290	-828	149	31
2006	501	-992	-487	31
3726	615	-855	-44	31
3589	566	8	435	31
2385	666	616	-274	31
928	504	669	-943	31
-503	-509	447	-411	31
-1279	-1474	-218	-6	31
-3249	-1188	-293	395	31
-3483	-579	194	627	31
-593	-203	393	-549	31
351	240	131	-883	31
205	318	177	-468	31
1977	407	939	-53	31
2209	886	1085	830	31
1578	848	86	1841	31
982	-336	-1014	1515	31
-261	-898	-1714	78	31
-1216	38	-1194	-1509	31
-1392	332	502	-2331	31
-936	-137	816	-907	31
-2384	-347	673	-351	31
-2459	-686	501	136	31
359	-595	-683	840	31
1984	-217	-849	625	31
2317	-216	-94	810	31
1897	-145	314	207	31
514	64	329	-344	31
-2251	220	159	-424	31
-3122	219	208	-492	31
-864	365	797	-910	31
636	461	1790	-1384	31
563	153	1343	-568	31
-418	36	-572	969	31
-610	-9	-1699	1742	31
200	-120	-2236	2072	31
1167	147	-1658	422	31
1492	412	-179	-259	31
873	431	528	377	31
615	420	783	-6	31
363	242	553	197	31
353	256	626	-778	31
205	779	701	-583	31
-170	842	272	-126	31
-999	226	-192	597	31
-3028	-139	-1075	72	31
-4000	-333	-950	-1353	31
-3230	-805	-243	-3	31
-1126	-1283	-252	-254	31
-3467	-874	41	9	31
-3719	36	168	382	31
1911	488	222	132	31
4000	486	610	-125	31
4000	-281	704	-603	31
2235	-917	710	-71	31
-1257	-792	362	-370	31
-317	-275	-73	-332	31
1950	181	67	-1447	31
-146	463	1090	-1857	31
-1040	1387	1646	538	31
1984	1652	1029	3053	31
4000	885	-561	2888	31
4000	123	-2858	-141	31
3288	-799	-2834	-657	31
-2051	-1242	-1431	67	31
-2883	-1075	-276	-246	31
976	-367	738	601	31
2517	180	653	146	31
2243	21	390	-1114	31
1815	91	528	-1031	31
-2036	22	1004	-875	31
-4000	-107	778	-168	31
-2025	41	317	969	31
1957	-76	-126	466	31
69	-270	-659	-424	31
-2898	-186	-251	1637	31
-961	72	-334	1069	31
1016	315	-159	-1878	31
-506	458	286	-1865	31
318	579	214	-1163	31
1284	721	301	1166	31
779	505	106	2641	31
177	978	193	731	31
-1898	2157	573	-794	31
-4000	1340	708	-335	31
-4000	-908	89	-432	31
-2399	-2031	-413	-1053	31
1563	-2406	-502	-406	31
3388	-2380	-371	454	31
1995	-1210	-390	944	31
332	-199	-995	967	31
2325	2	-836	1012	31
3988	211	-331	7	31
2196	146	46	-810	31
1978	338	104	-242	31
2057	478	81	-620	31
-304	97	394	-751	31
-2416	-93	182	-91	31
-3691	-171	-184	247	31
-1516	55	-336	4	31
-1056	54	333	-471	31
-2519	-80	1430	-183	31
390	192	1206	-353	31
1727	204	727	-315	31
-533	194	673	767	31
-4000	149	403	512	31
-3946	42	27	-392	31
-1601	154	-734	-62	31
-47	277	-1319	1386	31
2064	397	-996	212	31
460	332	-432	-965	31
1540	214	-211	736	31
1042	198	-221	478	31
1722	167	-444	-502	31
4000	105	207	-1941	31
2322	-21	1819	-2055	31
291	-83	2272	355	31
115	-39	856	1766	31
454	-94	-1167	3451	31
624	-81	-2495	3372	31
269	214	-1934	138	31
-25	307	-337	-1573	31
-2468	392	193	-805	31
-4000	554	-160	-242	31
-4000	227	-664	116	31
-1909	-97	-445	-252	31
-388	-273	-154	-1699	31
1868	-486	-366	-2174	31
867	-592	430	-1466	31
-365	-601	1629	-1184	31
999	-184	1847	-195	31
402	268	847	2468	31
3032	241	-350	2005	31
2002	179	-972	-1464	31
-2317	233	-576	-595	31
-4000	188	366	587	31
-4000	159	817	-1030	31
1744	268	1889	-33	31
3857	189	1964	-19	31
2234	-11	377	1358	31
1362	110	-1093	2491	31
768	108	-1847	-344	31
1360	-200	-1479	71	31
2665	-408	-1305	898	31
1774	-625	-1007	-400	31
1122	-558	-707	-1021	31
1039	-10	-307	-582	31
-387	363	966	308	31
-428	220	887	710	31
-420	-143	-192	764	31
-1154	-322	-355	253	31
-2049	-303	-73	-972	31
-1967	-310	322	-1611	31
-486	-361	1082	-1359	31
-1848	-250	2020	-394	31
-4000	-80	1978	334	31
-2495	-40	464	603	31
3673	82	-1334	673	31
4000	194	-2587	47	31
1602	227	-1987	-14	31
457	383	-127	-937	31
-1037	446	1168	-1729	31
-549	280	1546	-459	31
579	176	723	703	31
-405	271	-608	2320	31
-263	195	-1310	1530	31
-268	-3	-766	-519	31
-430	-198	-295	-84	31
-1514	-313	51	269	31
-1691	-39	711	180	31
-1472	78	1163	-319	31
-458	-94	1932	-632	31
2022	-124	1805	-1465	31
-262	-106	695	-1676	31
-1733	-64	-498	180	31
348	8	-2068	1212	31
761	135	-2243	1838	31
1451	202	-232	2446	31
1603	121	724	865	31
215	99	433	-635	31
-180	61	711	-1649	31
-46	-101	724	-2428	31
265	-121	369	-71	31
442	-9	-272	2276	31
150	-16	-779	1357	31
1	-27	-239	-1813	31
-120	14	645	-1019	31
290	134	142	2078	31
656	217	-970	1460	31
-47	-82	-1500	-905	31
-833	-262	-2015	-1884	31
-986	-6	-1416	-720	31
-1072	131	-618	-417	31
16	-72	-499	-385	31
-1135	-65	165	538	31
-4000	128	684	1691	31
-4000	-111	527	1501	31
-429	-112	495	1044	31
4000	119	630	1071	31
4000	47	420	-510	31
4000	-17	616	-1888	31
3906	-49	1166	-1987	31
1748	-36	1772	-541	31
1268	-86	1662	1362	31
479	109	958	653	31
-350	480	165	-7	31
-164	377	-1286	1725	31
241	-37	-1784	-1047	31
-905	-497	-1172	-3539	31
-1448	-542	-299	-2454	31
277	35	-207	-1364	31
-1814	950	-596	2317	31
-2134	1530	-481	2720	31
-836	940	-213	1395	31
-1112	-124	164	111	31
396	-917	270	-522	31
-228	-1206	149	432	31
-83	-653	365	-634	31
-143	-180	1250	-962	31
-683	-464	1487	-1221	31
374	-614	818	-750	31
-586	-476	-127	-289	31
-725	-364	-1250	424	31
-760	-16	-1007	1435	31
-494	339	84	-161	31
-6	497	-16	-1192	31
-2593	318	-611	414	31
-3768	271	-431	358	31
875	327	-14	-1254	31
2269	-150	94	623	31
-11	-179	-158	2717	31
1655	-224	279	1837	31
811	-646	1859	1682	31
610	-46	2365	2093	31
863	628	748	-391	31
-169	676	-1305	-1165	31
99	529	-2496	-1013	31
-1305	164	-2387	-1630	31
-1651	-352	-332	-1147	31
-1465	-802	1428	-1878	31
-597	-757	1276	-2084	31
114	-373	1173	-1021	31
379	33	556	1312	31
-245	272	-771	1962	31
-891	337	-849	1712	31
-969	366	-1203	335	31
-3275	405	-1203	-2000	31
-3250	296	-239	-1177	31
2788	220	-243	502	31
4000	194	272	1778	31
4000	-204	707	453	31
1019	-373	568	-1333	31
-2528	-205	578	-2187	31
-3100	117	274	-919	31
3871	373	-72	2239	31
2843	200	86	1687	31
914	41	783	1532	31
2059	-162	1040	577	31
-563	-251	1188	-963	31
-723	-65	1381	1083	31
-499	46	493	219	31
-667	170	-812	-157	31
-868	344	-1772	-442	31
-1804	367	-2551	-1840	31
-1460	220	-1677	1367	31
-1223	102	-123	863	31
-661	-27	222	-720	31
-408	-270	297	-211	31
-137	-562	219	-1507	31
1603	-498	171	-1169	31
1502	-96	204	-671	31
-588	81	366	925	31
-1386	179	842	880	31
-1264	204	720	-299	31
-1081	144	500	937	31
-225	96	769	1229	31
555	-88	590	-1039	31
353	-179	-109	-1885	31
641	-63	-1466	1133	31
-670	465	-2876	1746	31
-2840	1031	-2143	54	31
-2532	762	-493	-913	31
-1101	-87	307	-1842	31
-886	-786	783	-1681	31
-1489	-947	834	-760	31
854	-559	413	996	31
3413	-67	482	1288	31
2189	122	979	22	31
232	184	1075	287	31
-821	265	861	2511	31
584	11	34	2717	31
2179	-495	-1074	-245	31
-2029	-475	-1220	-742	31
-2969	-99	-488	-1093	31
1243	3	240	-1056	31
2676	161	1187	-823	31
3182	313	2127	-1339	31
1835	431	2286	-1052	31
809	596	1118	-1217	31
761	193	-880	823	31
440	-271	-2659	1897	31
-244	-103	-3224	1987	31
-1739	-157	-2235	1802	31
-1257	-559	-546	-334	31
-1159	-601	626	-1077	31
57	41	466	-726	31
-1021	1103	593	-429	31
-4000	1482	828	-59	31
-1184	415	465	-251	31
2869	-1012	258	-329	31
804	-1104	337	14	31
2974	-928	744	230	31
2879	-805	959	385	31
651	-30	474	31	31
981	145	-568	38	31
1324	-6	-1112	-238	31
2191	135	-581	-1207	31
1074	205	921	-1547	31
700	217	1288	-1053	31
-54	255	270	-154	31
-388	79	-880	767	31
1174	-247	-1781	1706	31
174	-187	-551	1276	31
-74	-21	444	408	31
-535	170	183	258	31
-1529	289	267	-166	31
-877	232	305	30	31
-863	380	1040	-253	31
-2891	280	1385	-672	31
-3832	-245	458	-734	31
-3384	-490	-152	-1695	31
-2868	-342	-260	-2171	31
2616	-106	7	-94	31
4000	181	702	2532	31
896	355	418	1990	31
79	490	-471	1026	31
-195	486	-666	403	31
813	61	-1409	1485	31
700	-172	-2437	127	31
-37	62	-1787	-1499	31
561	154	-801	461	31
-687	21	465	372	31
-1463	46	1917	424	31
-1546	80	1365	134	31
-369	117	67	450	31
-418	25	-452	1401	31
762	-272	-1140	1079	31
1326	-116	-1056	-1527	31
-156	155	1069	-1805	31
72	52	2114	-905	31
-1145	-155	1251	-2091	31
-1212	-190	565	-1338	31
-204	-28	507	-1371	31
1229	-186	692	-1031	31
955	-534	38	1136	31
-146	-350	-836	3986	31
124	158	-1562	3317	31
-696	242	-1785	565	31
-420	-95	-132	-2514	31
-1012	-322	1924	-2482	31
-547	-225	1380	705	31
1157	13	-595	1413	31
459	240	-1802	1566	31
-209	361	-2361	-1231	31
-220	322	-1135	-1822	31
-77	366	-200	-1818	31
-644	297	-558	-1089	31
-1898	-36	-259	2685	31
-1917	-160	441	2060	31
-388	-40	851	-292	31
-36	200	1257	-538	31
-1094	428	2116	-784	31
-3460	256	2025	-943	31
-3285	75	1277	95	31
3485	25	286	1209	31
4000	-317	-1014	1767	31
3174	-516	-1462	232	31
512	-322	-1819	-1617	31
-2477	-42	-1999	-1284	31
-1622	-125	-1040	-836	31
3601	-126	443	295	31
1455	76	1205	1238	31
-297	67	1314	-115	31
-996	97	1880	-936	31
-4000	-217	2140	-1026	31
1023	-378	1118	-434	31
4000	-124	-2	1166	31
2009	50	-1300	2613	31
339	36	-2184	2058	31
-1437	-64	-1113	-345	31
-1675	230	-172	-1016	31
530	649	-386	-338	31
2340	744	-717	-792	31
1185	329	-896	-1458	31
824	-117	-338	-482	31
724	-621	802	-223	31
-542	-934	1272	-512	31
-1273	-555	1187	-320	31
-547	-60	885	-553	31
425	536	579	-255	31
-776	597	572	-445	31
-903	318	205	851	31
-452	111	-592	2397	31
-750	-237	-1321	549	31
473	-266	-974	127	31
-312	-278	-209	1259	31
-1936	-190	185	327	31
-970	-250	917	-843	31
-179	-332	1458	-1064	31
255	-66	921	-437	31
-352	69	-382	2156	31
-75	244	-1560	3098	31
1233	192	-1766	-848	31
-546	171	-264	-2336	31
-834	262	877	-1056	31
676	102	694	-1635	31
94	-14	754	-1748	31
-1502	-85	422	-1829	31
-4000	4	-194	-1123	31
-4000	-47	59	638	31
-2082	-157	-231	1833	31
2139	-14	-1067	944	31
4000	102	-709	1010	31
1925	112	-452	3687	31
1384	246	-452	2966	31
4000	439	243	-486	31
1601	334	187	-1494	31
703	303	-885	-748	31
1207	258	-1065	367	31
-605	-184	-368	56	31
614	-558	664	-1490	31
-244	-421	1530	-1413	31
-1240	-130	1485	-755	31
-3041	-87	948	1099	31
-2559	-7	-520	1912	31
603	71	-1087	370	31
103	113	-535	-555	31
-1708	121	229	-1410	31
-493	1	1348	-1293	31
3555	-62	973	-396	31
3029	-86	-21	45	31
1014	-92	-822	255	31
304	-33	-1052	-180	31
-454	90	-12	-183	31
426	126	539	-206	31
-19	23	179	-244	31
-957	-254	-347	-71	31
-1048	-451	-636	-1219	31
-517	-169	-450	-2173	31
-185	92	16	-463	31
-922	180	660	1467	31
157	169	1407	2223	31
949	70	1609	2647	31
-65	197	811	1584	31
-389	260	-341	-117	31
-1944	116	-1142	-1682	31
-2057	44	-1050	-159	31
-361	406	-671	1742	31
591	608	-866	355	31
2329	280	-754	-7	31
1016	82	-412	948	31
-1625	-94	-240	-142	31
-2947	-175	173	-1348	31
-2267	-285	389	-914	31
2051	-653	305	-871	31
3220	-655	247	-177	31
1283	-306	151	-134	31
-14	-137	333	-300	31
-694	-69	814	-562	31
-846	241	954	-724	31
-2452	388	691	-66	31
-1557	215	262	121	31
3329	-83	-220	1081	31
3394	-282	-161	851	31
449	-129	-24	-614	31
101	-46	-34	-272	31
-1321	-24	281	553	31
-1666	-47	253	-326	31
-2084	1	-799	-453	31
-1365	-74	-2030	-121	31
2791	-239	-2187	-116	31
1574	-39	-1222	220	31
-354	9	184	-272	31
1550	36	493	493	31
928	11	232	1083	31
1236	-29	358	-107	31
2029	118	715	-607	31
412	164	909	4	31
-567	189	611	167	31
-978	184	358	-67	31
-407	197	477	-104	31
114	87	761	-1037	31
-69	16	514	-2156	31
-37	101	211	-1187	31
-97	227	-428	617	31
-142	363	-721	2289	31
-554	327	81	3125	31
-402	307	48	843	31
-110	89	-280	17	31
-232	-221	-243	252	31
-65	-417	312	-951	31
-74	-609	1312	-597	31
-125	-536	997	303	31
-821	-353	-423	2166	31
-2229	-38	-2076	1191	31
-1391	172	-2296	-735	31
-4	93	-707	-735	31
-713	74	162	-2422	31
-594	-7	398	-1453	31
-148	-28	743	-952	31
1661	23	791	-269	31
2362	16	499	1117	31
970	53	-66	1296	31
871	94	-558	1076	31
-622	184	-126	99	31
-928	180	512	319	31
74	84	263	-247	31
849	90	-25	129	31
484	126	-194	-389	31
181	61	-21	-930	31
419	-82	702	-512	31
-275	-189	797	-142	31
219	-125	-29	337	31
-138	188	-435	-609	31
-102	181	-530	-1281	31
-611	126	-79	-1710	31
-3499	140	879	-1026	31
-3962	-447	1040	-121	31
-302	-511	338	2120	31
751	-72	-965	3038	31
1205	-19	-1481	229	31
2896	-2	-946	-457	31
-452	-39	-286	25	31
-157	-83	364	1039	31
562	-70	102	1944	31
-538	-15	-893	785	31
1626	190	-788	255	31
1550	325	32	-745	31
572	245	700	-841	31
19	125	1110	-452	31
77	-10	918	-976	31
541	-116	362	-626	31
926	46	-53	-702	31
182	52	181	-202	31
-843	-180	915	-5	31
-749	-72	1591	66	31
-972	67	975	49	31
-685	109	-618	-664	31
31	194	-1660	-344	31
448	130	-2103	-416	31
395	6	-1408	-603	31
344	-49	-298	-33	31
71	-202	351	702	31
-927	-362	676	615	31
-486	7	559	-49	31
-159	309	337	627	31
-1582	-46	126	402	31
-1224	-348	-219	-713	31
200	-223	-377	-262	31
1033	105	-373	-159	31
1584	288	-522	440	31
-122	349	-136	1485	31
-595	387	303	725	31
2081	438	242	-93	31
730	495	295	-134	31
-159	305	245	-134	31
964	-177	423	-589	31
-609	-506	748	-786	31
-190	-100	627	-444	31
-339	-117	265	182	31
-367	-985	-475	558	31
-116	-1108	-920	-299	31
-573	-733	-666	-940	31
-309	-230	342	-236	31
185	320	1289	518	31
774	273	984	881	31
-1781	175	183	858	31
-1134	208	-716	465	31
214	189	-944	10	31
-2013	187	-42	-1223	31
-290	145	577	224	31
1355	214	191	1437	31
1718	194	-689	282	31
1914	-2	-1020	274	31
333	-51	-32	-1009	31
443	86	1094	-1079	31
147	157	1335	-648	31
-585	51	999	199	31
712	-7	-144	858	31
971	32	-1040	214	31
242	71	-1608	966	31
362	99	-2150	426	31
101	87	-1586	-749	31
-462	42	-375	-468	31
-666	32	246	-157	31
-956	45	663	-1089	31
-634	115	1336	-1126	31
217	316	1200	-815	31
397	341	345	-103	31
227	230	-87	1211	31
-74	185	-254	285	31
-207	-283	-365	92	31
62	-820	-84	1222	31
200	-677	325	-62	31
156	-254	534	-527	31
-206	-17	468	-343	31
-464	-55	1225	-1502	31
-992	-152	2205	-1362	31
-2463	-119	1384	-680	31
-1994	-65	-638	3043	31
954	16	-2444	4000	31
1264	254	-2283	1577	31
217	468	-776	-489	31
336	351	91	-457	31
233	151	-62	-751	31
832	82	-885	-1513	31
209	39	-490	-1883	31
-1705	16	370	-1282	31
-756	-1	746	-500	31
2473	-22	809	673	31
1067	-6	294	1015	31
-2092	167	-51	483	31
-2744	468	-433	-169	31
-2505	544	-258	-560	31
1749	235	261	-951	31
3406	-285	416	-551	31
1914	-515	449	59	31
224	-393	200	325	31
-1986	-473	-185	-61	31
-330	-557	-452	-1168	31
118	-392	-162	-1308	31
-17	-92	299	-464	31
-209	161	392	1281	31
-868	7	242	2161	31
696	-158	-114	1568	31
1668	64	-324	162	31
2684	201	-214	-2	31
1670	209	-127	265	31
49	487	42	-342	31
229	717	210	38	31
243	256	227	-130	31
181	-262	153	-225	31
-360	-242	176	-126	31
-995	-259	310	163	31
-2603	-127	412	459	31
-2674	95	652	-1	31
740	406	320	-537	31
2562	869	-308	-1028	31
1127	328	-242	-370	31
557	-730	102	189	31
195	-909	-264	-95	31
-495	-581	-668	-628	31
-358	-237	-165	-784	31
-626	67	491	-793	31
-751	-131	618	-181	31
-552	-318	165	1430	31
152	-147	-810	1232	31
111	20	-1529	715	31
93	81	-1165	450	31
530	-119	-557	-1339	31
-64	119	-179	-1266	31
-151	435	153	928	31
-213	102	394	2217	31
-1427	11	357	1473	31
-3132	266	504	-800	31
-2182	322	486	-1222	31
1261	196	76	-874	31
1819	86	-134	-592	31
1115	271	-91	687	31
1603	526	280	280	31
774	377	152	-133	31
518	27	-76	170	31
583	-229	55	913	31
70	-380	137	1652	31
65	-395	402	661	31
-140	-313	470	129	31
75	-210	2	-280	31
275	-144	-84	-1145	31
235	-57	432	-1682	31
142	50	601	-1236	31
-10	123	804	-832	31
-180	106	1246	-177	31
-383	91	399	583	31
-332	65	-976	324	31
-321	21	-1885	-67	31
-217	155	-2457	-194	31
-199	249	-957	399	31
-285	104	453	-886	31
-169	-167	382	-1248	31
-369	-217	96	205	31
-842	-224	-834	1000	31
-460	-214	-1129	1208	31
339	259	-317	209	31
215	367	705	-51	31
-119	250	1120	249	31
-258	143	1022	890	31
63	-318	544	1102	31
369	-443	-99	810	31
117	-238	-109	-276	31
133	-15	278	-499	31
-132	-3	389	234	31
-832	-12	122	-187	31
-1484	109	6	2	31
-1176	164	129	-554	31
-14	250	141	-785	31
-786	114	159	-771	31
-160	-94	219	-781	31
2763	40	280	-212	31
1505	298	525	117	31
719	375	929	563	31
1047	17	1277	503	31
-78	-533	310	1110	31
-54	-423	-1443	1138	31
-1004	-247	-2401	197	31
-142	-180	-2360	-538	31
1062	500	-763	-954	31
-519	661	406	-550	31
-1977	70	157	-676	31
-528	-369	203	-571	31
1448	-422	225	-310	31
433	-96	260	-102	31
402	109	280	24	31
-31	124	268	-179	31
-1072	360	429	347	31
-1609	545	230	163	31
-1431	277	151	1	31
1702	29	217	718	31
-1154	-283	184	280	31
-4000	-802	313	-652	31
-44	-741	266	-525	31
4000	-134	161	-369	31
3786	68	240	502	31
1636	-282	-57	1021	31
1520	-380	-221	348	31
703	71	-165	797	31
562	450	-86	-58	31
109	158	530	-949	31
-480	-195	372	-560	31
-669	-117	-259	-882	31
-576	41	-418	445	31
193	67	-751	1392	31
433	-84	-458	148	31
238	-23	182	-1250	31
-1391	161	638	-1481	31
-265	-89	1440	-423	31
1465	-113	1753	1425	31
-863	372	245	2875	31
-2389	576	-1410	1259	31
-148	395	-1609	-805	31
1829	230	-1313	-1732	31
1076	130	-611	-247	31
557	-145	-523	1830	31
92	-250	-590	64	31
-209	84	-516	222	31
99	115	-415	29	31
-117	-217	71	-1272	31
-258	-170	174	-671	31
-366	32	445	-585	31
-185	64	603	-191	31
-156	-16	926	-389	31
-288	-61	1011	267	31
-252	-32	742	599	31
-315	-64	605	-437	31
-299	140	-15	-1237	31
-310	357	-318	-135	31
-230	288	-561	1099	31
-257	117	-296	854	31
-259	-101	551	1183	31
-189	-375	245	538	31
-151	-387	-838	101	31
-15	24	-1288	-334	31
75	329	-411	-903	31
26	507	299	-455	31
-84	400	185	-740	31
-78	-134	177	-280	31
-31	-217	121	219	31
-2	-64	131	-89	31
6	-370	29	-233	31
-118	-510	-52	-502	31
-252	-257	-44	-267	31
-184	149	67	536	31
-315	426	177	1095	31
-495	166	165	61	31
-82	-49	275	-129	31
-92	-349	181	172	31
-317	-433	136	-675	31
147	73	195	-251	31
0	-112	378	157	31
-219	-345	507	439	31
-440	-182	157	374	31
-1413	-31	-79	-77	31
-1485	74	53	-178	31
855	116	-14	-14	31
2631	491	-365	228	31
1345	583	-605	-173	31
265	639	-484	-232	31
-375	712	-245	-206	31
-924	234	-235	400	31
-243	-491	-63	939	31
796	-709	138	412	31
1117	27	130	237	31
872	908	233	92	31
693	1255	205	-372	31
139	566	21	-374	31
111	-657	106	-396	31
107	-1590	233	-528	31
50	-1843	216	-377	31
127	-1216	309	-218	31
-171	-486	304	-2	31
-164	23	261	445	31
-234	215	-374	1193	31
-247	110	-791	370	31
-272	74	21	-374	31
-320	202	48	457	31
-1047	338	62	-305	31
-1190	446	289	-945	31
555	632	-440	-1260	31
728	405	-345	-720	31
310	-61	-249	1183	31
429	73	-264	1335	31
-224	64	153	1088	31
-233	-204	53	507	31
-181	-35	51	-384	31
-7	48	-274	-507	31
42	9	-409	-738	31
107	62	-122	-1276	31
412	140	3	-1051	31
-97	80	125	1024	31
-322	184	-34	1098	31
-491	452	-98	-947	31
-427	321	179	-931	31
75	96	392	-436	31
309	-280	365	-19	31
518	-774	428	915	31
346	-391	307	645	31
190	188	273	419	31
201	34	365	1162	31
160	266	220	1056	31
93	799	128	547	31
22	1241	215	-107	31
36	1184	388	-633	31
-23	-131	-126	-964	31
-72	-1437	-721	-403	31
-258	-1474	-1079	237	31
-236	-671	-812	-468	31
-80	-328	31	-125	31
-104	-264	264	-128	31
-129	-90	353	899	31
-169	-154	170	1257	31
-60	-45	130	-836	31
-49	9	395	-657	31
4	30	56	-116	31
-11	148	-512	-64	31
-52	313	-643	8	31
202	466	-583	-426	31
126	237	-134	-426	31
7	26	537	-124	31
7	187	89	-166	31
-81	448	-456	-370	31
-127	216	-674	-157	31
-200	-109	-911	-432	31
-254	-169	-45	-1	31
-235	-608	919	645	31
-93	-541	1009	429	31
6	375	737	750	31
64	1245	708	480	31
122	1688	753	-29	31
153	683	264	19	31
218	-1202	-98	-416	31
171	-1763	-240	-405	31
62	-930	-685	547	31
99	-228	-1149	993	31
121	157	-1124	297	31
91	149	-204	-319	31
83	-389	975	-370	31
-6	61	997	-233	31
11	747	478	14	31
5	-114	413	-183	31
-145	-855	145	-98	31
-115	-503	21	-37	31
-164	258	390	-401	31
-259	964	647	-847	31
-139	721	593	-1172	31
-21	21	-348	-1081	31
80	-99	-1247	-318	31
114	204	-1090	2438	31
75	343	-1116	2564	31
-151	457	-397	-565	31
-419	330	722	-670	31
-9	-235	639	-229	31
418	-451	-11	45	31
194	-684	-629	109	31
148	-885	-172	-1014	31
63	-541	250	-24	31
14	10	-185	692	31
89	249	-341	1216	31
-128	205	-577	1521	31
-146	237	-63	180	31
-82	172	864	-137	31
-37	97	794	-338	31
69	134	473	-382	31
148	551	224	154	31
87	1305	52	-56	31
32	1350	-216	-498	31
26	293	-112	-397	31
16	-567	27	-356	31
147	-680	81	-640	31
106	-682	475	-331	31
-39	-586	349	-605	31
-73	-532	375	-944	31
-32	-816	307	-353	31
-61	-997	128	-48	31
-86	-486	441	116	31
-74	-66	278	153	31
-86	-106	-380	219	31
29	-30	-1461	527	31
56	-66	-2081	1356	31
31	-179	-1203	943	31
46	-158	259	49	31
126	385	999	-288	31
130	707	468	-512	31
64	347	-27	588	31
78	442	240	390	31
49	484	9	199	31
52	328	-68	479	31
12	272	269	-238	31
-6	6	282	-1033	31
6	-195	272	-1557	31
-41	-150	84	-1252	31
-60	-14	212	-441	31
-127	65	272	904	31
-165	154	-376	1412	31
-161	209	-974	1698	31
-126	252	-991	1089	31
-46	12	75	-839	31
42	-185	1022	-711	31
148	-94	784	9	31
132	-96	252	77	31
46	-23	-287	554	31
106	12	-447	473	31
221	444	-405	773	31
72	1478	-1096	405	31
-42	1953	-802	-760	31
30	1126	838	-435	31
-9	-588	1657	-689	31
-50	-2262	1845	-1044	31
-90	-2477	1458	-452	31
-56	-1229	264	-290	31
21	-201	-414	-6	31
56	312	-942	503	31
95	368	-1240	269	31
73	199	-798	-256	31
16	458	-296	-329	31
-32	860	171	-434	31
-7	1071	65	-427	31
37	560	-89	-295	31
85	-308	67	-166	31
176	-893	-44	668	31
185	-1340	-430	930	31
37	-1088	-186	-332	31
-77	-195	412	-237	31
-118	683	56	268	31
-57	1030	-227	-144	31
-16	1191	90	56	31
-221	1276	146	-219	31
-295	504	-87	-122	31
-68	-721	94	87	31
91	-1643	295	143	31
17	-1422	230	665	31
13	-555	237	390	31
18	99	117	-207	31
-69	293	321	4	31
-42	-204	334	396	31
4	-325	-162	-45	31
151	-215	-243	-193	31
138	-280	-17	-329	31
-117	-96	423	-424	31
-146	91	824	263	31
24	119	646	536	31
43	122	1	650	31
-64	188	-704	169	31
-37	255	-913	-711	31
-31	440	-1152	-757	31
-28	583	-1452	-147	31
-7	357	-1055	387	31
35	106	-179	60	31
92	-48	329	-10	31
64	-166	-9	316	31
70	7	-24	216	31
4	30	534	-530	31
7	44	718	-75	31
95	360	634	529	31
86	630	615	-171	31
30	648	427	-362	31
-32	124	86	-1517	31
-60	-514	-169	-1466	31
-76	-1022	-234	876	31
-171	-731	-256	3261	31
-126	116	-310	2972	31
27	218	-350	94	31
13	234	-350	-1715	31
156	250	1075	-1602	31
147	72	1275	-598	31
-14	-76	99	-871	31
31	-308	99	-89	31
-29	-362	-259	449	31
-10	-172	-241	147	31
80	287	-1091	1023	31
112	813	-1733	1540	31
69	1037	-1312	1123	31
-44	658	-201	-780	31
-81	120	1410	-1038	31
-149	-191	1728	-1542	31
-196	-709	2113	-1259	31
-104	-794	816	620	31
-19	-226	-324	-18	31
29	240	299	134	31
126	377	392	-18	31
152	123	597	57	31
177	-228	799	678	31
152	-489	-877	-139	31
38	-657	-2838	-946	31
124	-460	-2429	-818	31
106	-104	-1311	123	31
18	-35	1326	549	31
75	-76	1918	2193	31
-52	-82	-593	1858	31
-67	-79	-1461	-326	31
-64	52	-980	-310	31
-104	98	-51	-352	31
-104	173	477	-548	31
-176	450	705	-367	31
-26	486	669	-726	31
66	235	375	-816	31
72	76	-36	-669	31
63	-31	-370	-957	31
-15	49	-365	-384	31
32	111	278	518	31
124	-190	862	1388	31
89	-232	-111	2106	31
33	29	152	462	31
107	200	1547	-293	31
147	141	1663	17	31
61	94	785	-843	31
-41	100	32	-813	31
-2	-121	867	300	31
-23	-436	1109	1807	31
-86	-780	296	518	31
-3	-574	-1080	-1254	31
16	82	-2275	-1154	31
84	509	-2673	-1901	31
61	706	-2556	-1099	31
-49	1079	-596	351	31
-107	1474	1206	1372	31
-258	1138	1193	2383	31
-234	291	-220	121	31
-17	-1120	-732	-886	31
184	-2004	367	86	31
213	-1174	325	-541	31
55	-300	407	-192	31
2	-131	556	395	31
56	-145	258	453	31
-27	-156	936	-426	31
-292	-95	1238	-1032	31
-745	9	586	-730	31
-723	177	-538	-168	31
174	267	-1047	482	31
490	209	-1530	14	31
400	-16	-1220	84	31
459	-28	250	393	31
120	141	149	768	31
203	80	-19	798	31
311	-39	-403	-205	31
124	106	-79	-349	31
57	359	1573	-387	31
-25	200	1596	-601	31
-104	-13	536	-232	31
-287	39	-1255	538	31
-219	-44	-1742	742	31
4	-137	-611	332	31
-2	-106	1356	1163	31
-109	-144	2828	885	31
-80	-278	1085	-527	31
-1	-332	-328	713	31
32	-247	-1047	845	31
107	27	-2198	-1308	31
10	428	-1867	-2427	31
-80	532	-869	-1517	31
-101	383	192	-221	31
-262	238	1103	81	31
-268	121	1927	553	31
-144	31	1236	-9	31
-114	-111	-454	-279	31
-177	-159	-843	-951	31
-134	-240	-976	-527	31
-58	-396	-588	1507	31
32	-419	671	1965	31
172	-302	801	2931	31
152	54	-335	202	31
153	486	-866	-2527	31
88	540	-122	-484	31
109	158	1083	1073	31
209	46	1427	1718	31
126	214	290	189	31
41	293	104	-1068	31
-73	147	568	-1512	31
-63	-195	-1039	-1278	31
-24	-8	-2346	-204	31
-16	342	-1176	91	31
7	263	676	116	31
-16	58	1396	-91	31
101	-73	119	841	31
172	-219	-573	-625	31
-66	-363	1530	-770	31
-352	-233	1570	1968	31
-342	-54	-253	1657	31
-265	-56	-1077	1429	31
-265	-74	-1464	1294	31
-290	-123	-729	-870	31
-334	-188	-726	-1950	31
-281	-76	-560	-1843	31
-58	182	-86	-1543	31
64	348	708	-1118	31
67	249	1764	-957	31
83	-11	546	-702	31
-62	-405	-852	-881	31
-163	-609	-888	-325	31
-219	-234	44	285	31
-247	11	1613	838	31
-109	-35	1312	1535	31
100	29	-346	2047	31
157	86	-640	1861	31
213	119	-1089	-294	31
275	147	-801	-300	31
137	144	-412	-34	31
146	18	678	-1104	31
286	-154	1587	-795	31
451	-232	160	-379	31
407	-227	-510	435	31
252	-62	-1138	715	31
248	172	-410	345	31
103	276	385	748	31
-109	287	-124	1190	31
-141	348	333	442	31
-169	327	194	-1114	31
-370	31	250	-1312	31
-530	-313	1450	-116	31
-754	-189	1511	565	31
-502	194	-47	906	31
507	368	-768	370	31
910	441	98	-1038	31
581	239	429	-610	31
427	66	-209	-378	31
427	-309	-1899	-852	31
184	-797	-1769	705	31
-36	-471	560	2084	31
71	-157	129	1172	31
52	-209	-522	-943	31
-43	-56	76	-1067	31
-102	52	894	-384	31
-287	-2	1466	660	31
-270	37	741	1676	31
-79	-6	-391	-1071	31
-21	-60	-1424	-3092	31
117	-23	-471	-2203	31
171	-30	397	90	31
44	47	187	2246	31
-46	15	54	1244	31
-132	-95	-459	-478	31
-111	-9	-119	-1186	31
-37	145	-116	-665	31
119	199	-747	1209	31
-92	172	-1129	2045	31
-630	191	-678	1216	31
-657	158	907	322	31
-197	72	2087	-316	31
466	66	2246	-842	31
806	30	496	-722	31
562	20	-1372	635	31
275	43	-1512	1577	31
121	52	-1140	853	31
-10	86	-501	-690	31
150	139	133	-1824	31
353	149	1326	-1061	31
31	-79	1529	-340	31
-232	-282	729	-47	31
-59	-192	18	-252	31
-31	-111	-445	-1045	31
-22	-13	874	-921	31
49	90	1950	-475	31
70	77	1004	490	31
59	96	-503	748	31
-32	42	-1873	693	31
-4	10	-2969	257	31
34	27	-2248	736	31
-54	3	-582	824	31
-147	38	-250	667	31
-121	10	-422	799	31
-64	12	129	-994	31
-21	27	559	-69	31
-22	-23	1138	47	31
-18	-39	979	274	31
12	-77	284	-159	31
-24	-69	737	-1377	31
96	-39	180	-72	31
96	43	177	-186	31
-180	227	622	110	31
-370	460	476	-1382	31
-185	714	640	-1172	31
52	637	-269	1627	31
-38	91	-1757	2055	31
0	-353	-2985	694	31
-51	-590	-1471	162	31
-186	-1037	1014	152	31
-223	-1151	1065	-439	31
-289	-553	1504	88	31
-73	-159	2170	-385	31
111	-107	993	-539	31
270	21	4	-447	31
386	64	237	145	31
277	146	-16	223	31
277	126	-783	-935	31
96	47	-695	-310	31
-645	176	-927	658	31
-693	161	-401	705	31
293	72	666	1004	31
502	76	-195	212	31
250	74	-1017	-1091	31
137	79	-157	-749	31
-42	88	1281	-508	31
44	175	450	393	31
120	175	-877	307	31
181	50	-1017	-187	31
143	-27	-511	-632	31
96	-77	585	-1752	31
94	-5	146	-477	31
78	3	-466	1096	31
3	4	208	1701	31
-166	127	1879	578	31
-121	299	1990	-560	31
-87	751	-425	-183	31
-187	577	-2364	-409	31
-245	-371	-1241	1013	31
-207	-546	1105	1113	31
-133	-101	1061	725	31
-177	-16	69	1095	31
-302	-26	-1052	-1350	31
-276	112	-831	126	31
-19	119	830	1923	31
221	87	797	-66	31
225	19	-289	-1289	31
144	-233	-1461	-1025	31
336	-305	-1373	-484	31
509	-90	-310	-580	31
408	-7	1702	7	31
145	-16	2569	149	31
7	206	646	455	31
11	480	-376	-338	31
-179	334	-872	-1587	31
-190	-74	-288	-1817	31
-176	-386	1137	-532	31
-159	-765	867	1907	31
-162	-690	-142	2893	31
-525	-107	-860	2380	31
-874	406	-664	-829	31
-1101	638	-1102	-2248	31
-999	436	-1300	-915	31
-132	269	-187	-1440	31
995	-60	-10	-1951	31
1287	-471	-410	-935	31
874	-389	-529	882	31
483	1	-107	2176	31
310	252	647	1884	31
-222	-243	1136	356	31
-314	-440	192	-650	31
623	-138	-96	114	31
864	-66	1768	225	31
595	94	1980	-109	31
332	99	-532	966	31
-70	148	-1769	1433	31
-270	190	-626	410	31
-162	82	278	-170	31
-78	49	36	-738	31
-216	-7	-129	-962	31
-190	41	176	-892	31
-176	94	488	-933	31
-47	101	683	-286	31
-116	127	121	-69	31
-338	247	-385	523	31
-218	367	-559	447	31
-60	246	-570	-659	31
-47	57	63	-1319	31
-104	-114	300	-1214	31
-42	-240	-670	-84	31
-38	-293	-1629	969	31
-47	-385	-878	1502	31
-193	-317	1160	2060	31
-289	-24	1625	1461	31
-241	192	171	345	31
-208	90	-540	-75	31
-150	-113	-117	-587	31
-168	59	1751	-197	31
-18	360	2227	-146	31
146	460	-718	-377	31
235	610	-2184	-335	31
261	662	-558	-144	31
361	298	110	240	31
268	-588	-956	-673	31
-276	-1279	-733	-1473	31
-583	-882	-286	-1108	31
-327	-24	744	-332	31
39	320	1395	715	31
101	182	694	1410	31
45	-8	1047	1505	31
-158	-272	677	-462	31
-264	-343	-245	-2346	31
81	-165	-427	-881	31
443	-149	254	-419	31
462	6	503	189	31
262	185	-36	1181	31
142	155	597	1682	31
85	163	165	3001	31
214	182	-2499	962	31
307	107	-3397	-259	31
182	-10	-1511	-745	31
100	25	-166	-1790	31
51	215	182	-1263	31
115	335	892	-1423	31
-74	256	788	265	31
-306	5	-194	2219	31
-152	-318	-511	861	31
-127	-433	1033	-1232	31
-321	-66	1900	-1484	31
-452	131	633	-789	31
-248	-24	195	615	31
6	144	161	1092	31
99	155	615	1072	31
383	-134	375	1354	31
227	-154	-376	176	31
-564	-32	355	-911	31
-1064	150	-1	-920	31
-418	347	-324	-1004	31
555	283	-147	-1149	31
279	118	-513	-1151	31
-588	154	-184	-287	31
-633	113	-529	1499	31
418	-70	-53	1541	31
953	-128	-29	287	31
859	-230	-1918	104	31
796	-287	-1101	-628	31
448	-341	1448	-1991	31
312	-312	2403	-1523	31
134	206	857	-546	31
-62	1010	-525	978	31
-151	1472	-386	1377	31
-65	1196	-317	772	31
-42	339	14	2347	31
-234	-1081	-488	1911	31
-259	-1844	-1146	1298	31
-27	-1464	-1142	404	31
271	-802	-267	-1800	31
78	-247	527	-833	31
-124	96	-404	-830	31
-58	664	-500	-1007	31
71	531	1178	-396	31
23	39	1561	284	31
-140	-220	-205	993	31
-128	-691	-1235	265	31
-367	-571	269	-487	31
-265	-69	2801	-1239	31
29	202	3672	-706	31
228	191	2503	-560	31
467	377	287	-1527	31
246	598	-3407	-1549	31
7	377	-4000	-317	31
-277	-175	-2265	2640	31
-453	-601	-388	3643	31
-500	-398	1114	580	31
-529	-33	-215	-848	31
-409	467	-368	-232	31
-581	696	1137	-87	31
-575	683	1072	47	31
-836	932	650	-661	31
-1668	1003	-659	-428	31
-1675	912	-1268	31	31
-708	-4	-876	-53	31
250	-1128	-675	761	31
1720	-1168	-268	-19	31
2986	-1053	611	-814	31
2192	-797	1764	-221	31
477	-333	2436	558	31
-367	-139	915	1231	31
278	541	-114	382	31
804	1346	805	-149	31
-146	1489	912	-76	31
-439	938	-468	-379	31
624	-566	-1153	-450	31
932	-1500	-1401	-1650	31
801	-1120	-751	-1688	31
841	-874	974	458	31
418	-389	-1161	1179	31
133	321	-1734	915	31
-22	304	-392	250	31
-86	318	-172	-1462	31
-180	654	1376	-1095	31
-234	721	1118	539	31
-220	492	623	11	31
-455	-411	154	-45	31
-579	-1316	-340	1429	31
-521	-1140	-1106	3664	31
-196	-368	-1478	1787	31
-146	271	-313	-1203	31
-403	213	349	-146	31
-428	-1	1348	-1288	31
-484	-135	293	-402	31
-440	-300	-1877	-30	31
-149	-59	-907	-1046	31
6	370	1516	27	31
-148	787	1750	-651	31
-490	493	855	-596	31
-1159	1	29	-216	31
-1026	184	-720	368	31
80	317	-629	-5	31
115	351	-488	-470	31
-1448	428	654	133	31
-4000	438	912	224	31
-4000	49	272	-1375	31
-3197	-393	991	-1547	31
1180	-277	1330	1146	31
4000	-83	646	2941	31
4000	33	-119	2617	31
4000	49	-834	668	31
4000	41	-811	-566	31
1987	8	-481	-734	31
996	-12	-845	-478	31
145	32	-1129	-968	31
-286	-9	-1889	-877	31
-908	-37	-1909	-506	31
-1853	-19	250	-458	31
-1536	325	2538	-1196	31
-659	496	2364	-1872	31
35	159	484	-733	31
-101	-32	-1541	1725	31
101	-156	-2365	4000	31
-73	-263	-439	1552	31
-385	-255	400	-1526	31
-378	-366	-540	-409	31
-628	-521	-704	-647	31
-661	-431	-303	26	31
-768	-76	390	548	31
-411	83	570	-272	31
-279	7	1637	-890	31
-597	56	1498	-848	31
-723	112	501	429	31
-636	309	477	791	31
-547	651	211	-151	31
-646	493	1687	-703	31
-344	39	2482	-1580	31
-186	-303	257	-1460	31
-407	-779	-1822	902	31
-402	-700	-2491	2912	31
-329	-37	-1523	1888	31
-294	129	-460	-1565	31
-207	132	-796	-1167	31
-182	175	-46	117	31
-239	230	-102	-206	31
-258	411	39	1067	31
-144	338	217	89	31
-71	-24	-158	-1001	31
-176	-393	184	8	31
75	-401	-259	-16	31
342	-390	421	-845	31
-106	-343	856	-435	31
-271	-131	298	1023	31
-113	59	467	2076	31
-653	210	1345	1442	31
-1432	72	748	371	31
-1362	47	-465	788	31
-28	140	-884	-44	31
505	275	-1067	-1092	31
260	251	-24	-1057	31
1025	-12	106	-1433	31
1533	-44	333	-1513	31
1575	-183	867	-1368	31
1202	-173	36	-129	31
636	-144	-1064	1772	31
436	-160	-1092	1757	31
120	211	-453	-265	31
101	494	28	-1780	31
-259	461	946	-2279	31
-901	125	511	-665	31
-544	91	-455	2118	31
-335	320	-1185	1658	31
-2645	438	-1450	1348	31
-4000	373	-747	1051	31
-3868	67	108	-518	31
2079	-215	603	-233	31
4000	-420	666	-612	31
4000	-263	1357	-557	31
4000	-328	1530	19	31
4000	-393	797	835	31
2484	-431	-75	1145	31
935	-674	354	-483	31
-255	-249	460	-820	31
-696	1	-633	-209	31
-495	-6	-482	-686	31
-831	76	-734	-1025	31
-829	21	-612	434	31
-1225	86	553	1764	31
-1404	34	404	2156	31
-1472	24	-263	1257	31
-1627	57	-486	-571	31
-2215	175	-409	-961	31
-2089	212	16	-618	31
-1145	-11	405	-735	31
-799	137	-276	-305	31
-335	468	-1039	126	31
274	393	-330	-163	31
19	-99	533	-264	31
-1833	-280	852	-746	31
-2481	29	1082	-1073	31
-457	4	-9	-975	31
1243	-76	-965	-700	31
1382	5	316	-288	31
806	14	1240	-117	31
375	34	1056	388	31
349	52	1075	831	31
101	250	-114	1356	31
-496	194	-1957	1820	31
-1335	-27	-1980	346	31
-1335	-90	-940	-447	31
-532	-264	-415	-124	31
262	-244	-65	-422	31
750	-27	232	-53	31
181	37	270	-538	31
-147	20	699	-184	31
167	52	894	400	31
149	14	622	417	31
-1207	-108	-131	558	31
-2676	-190	-1287	-840	31
-2016	17	-1076	-1449	31
-137	390	324	51	31
1806	416	435	1332	31
1453	227	-398	868	31
-1524	-184	-402	375	31
-2437	-365	59	-780	31
437	35	618	-827	31
3083	72	460	-122	31
3336	-19	56	-808	31
2495	52	174	-124	31
2067	-10	107	87	31
1248	2	795	450	31
240	-101	1851	365	31
-79	-140	1754	13	31
-1737	-63	436	10	31
-2816	-15	-1259	-816	31
-1468	64	-2138	-340	31
435	104	-1203	170	31
1190	222	-87	488	31
1203	337	-79	739	31
1145	130	126	1401	31
715	-261	-87	-223	31
255	-240	-443	-1362	31
-47	-61	-467	-17	31
-225	-212	-455	-785	31
-766	-165	-41	300	31
-1009	292	588	1226	31
-600	570	503	795	31
-589	481	110	577	31
-773	161	268	346	31
92	-310	-2	-294	31
830	-522	-439	-458	31
376	-614	-439	370	31
30	-601	543	-402	31
71	-420	1809	-944	31
117	-230	2365	-872	31
-95	11	1927	129	31
-34	18	352	1472	31
-176	93	-505	1523	31
-355	107	-1533	623	31
-174	157	-2906	-530	31
-92	563	-2556	302	31
-55	727	-1840	690	31
-377	728	-474	-1670	31
-1002	110	1099	-1542	31
-1841	-963	1115	-1088	31
-1581	-882	726	-909	31
-645	-146	-35	-237	31
432	385	-42	-361	31
1990	856	323	460	31
2041	505	784	-242	31
1172	-224	611	-612	31
349	-498	-91	-761	31
-588	-470	126	-407	31
-1072	-303	-166	1640	31
-1340	-155	-1169	2964	31
-1187	121	-1376	1474	31
-40	283	758	-633	31
591	175	650	-893	31
-1378	77	-162	-392	31
-2049	33	543	465	31
1300	24	719	327	31
3646	59	802	174	31
2877	38	89	-39	31
656	-24	-279	143	31
-1315	-43	-531	115	31
-1922	-27	-16	-267	31
117	49	285	20	31
2904	107	215	-59	31
2912	102	266	-67	31
1600	54	69	-317	31
615	-19	-73	-761	31
144	-76	154	-1341	31
-446	-146	981	-1112	31
-417	-101	721	290	31
-421	51	356	2141	31
-565	152	-784	1835	31
-377	131	-1564	-454	31
-588	91	-176	-534	31
-552	100	-828	-270	31
-613	57	-1524	-592	31
-440	61	-851	-300	31
-553	51	-696	14	31
-844	21	-39	87	31
-687	48	119	-154	31
-892	175	584	-257	31
-878	342	635	-53	31
-149	194	240	124	31
438	-115	297	-206	31
538	-348	418	-235	31
-173	-492	751	69	31
-2011	-302	392	247	31
-1952	-84	22	64	31
-105	-97	-207	8	31
419	-39	-232	188	31
482	9	37	-238	31
783	36	500	513	31
1347	111	242	1153	31
1673	158	-579	14	31
1681	165	-340	-375	31
1418	46	362	-279	31
501	-87	676	34	31
210	-174	232	576	31
-57	-175	2	465	31
-462	-79	-97	-194	31
-784	15	35	-763	31
-863	77	212	-844	31
-89	54	-400	-649	31
-12	107	-432	429	31
-67	288	908	1088	31
15	531	1518	1280	31
-602	508	655	1019	31
-1124	8	-58	-653	31
-892	-373	-916	-2182	31
153	-240	-671	-2164	31
588	-169	-677	-825	31
49	-574	-1511	998	31
-165	-716	-1229	2834	31
415	-237	-601	478	31
538	180	41	-1289	31
220	182	-331	-304	31
209	117	-540	-737	31
-189	170	58	536	31
-654	342	319	234	31
-520	832	259	108	31
292	1007	866	1226	31
562	563	1316	1056	31
160	134	173	472	31
10	-714	-55	-271	31
-173	-1379	404	-110	31
-142	-1011	452	-223	31
122	-524	330	-139	31
292	-152	159	-483	31
104	152	117	-713	31
-89	116	50	-363	31
-12	-10	192	17	31
11	-68	207	207	31
-11	-65	269	52	31
-85	128	159	163	31
-90	277	-316	-262	31
-132	226	-581	-114	31
-136	182	-507	-3	31
-112	195	-429	-460	31
-151	181	-77	-277	31
-307	83	91	225	31
-565	-82	-1	566	31
-373	-213	41	206	31
-81	-126	-220	-345	31
-934	74	-224	-459	31
-2743	126	26	-51	31
-3111	81	183	333	31
-1163	60	188	21	31
1419	42	93	-144	31
2447	97	36	-151	31
2067	297	64	-295	31
2067	375	292	-240	31
2148	450	398	42	31
1864	829	301	607	31
1247	515	86	695	31
643	-466	182	126	31
35	-737	556	-344	31
-1091	-664	209	23	31
-1343	-741	-442	1460	31
-129	-593	-1085	1423	31
961	-229	-1691	-1171	31
1139	46	-923	-1579	31
440	53	-74	-501	31
114	68	-378	-570	31
-86	104	-808	-311	31
-505	95	-577	-468	31
-329	239	541	137	31
-417	501	1144	1061	31
-362	531	814	887	31
-437	168	289	179	31
-591	-121	234	-92	31
-507	-419	512	47	31
-551	-646	321	-279	31
-282	-294	397	-244	31
-38	31	459	-658	31
162	26	195	-886	31
-20	64	223	-910	31
-123	86	313	-809	31
44	67	468	130	31
-72	268	926	560	31
-257	849	1283	1222	31
-601	981	544	2351	31
-884	269	-761	2091	31
-1156	-137	-1691	1345	31
-536	-395	-2153	1224	31
818	-896	-2212	-79	31
816	-793	-1167	-1630	31
342	-133	769	-1847	31
181	506	1306	-900	31
-763	812	511	-232	31
-1266	598	-175	-526	31
-97	44	-475	80	31
866	-406	-654	-15	31
1094	-813	-97	-473	31
1392	-805	137	-312	31
761	-186	170	-241	31
144	-4	190	132	31
-22	23	-353	401	31
-81	102	-203	450	31
-24	-170	14	-110	31
-254	-216	541	-863	31
-247	-204	743	-1334	31
-169	-170	462	-469	31
-31	7	127	653	31
-46	12	-173	1019	31
-144	125	-19	703	31
-383	343	99	-62	31
-886	435	362	190	31
-511	458	320	188	31
523	372	71	-61	31
618	393	175	204	31
-58	623	312	68	31
-432	658	250	32	31
-430	510	116	114	31
75	591	94	-134	31
65	318	422	-273	31
-1866	-387	1109	-144	31
-3695	-536	1089	337	31
-3588	-691	62	1006	31
-1877	-1153	-1313	978	31
2049	-1366	-2233	-739	31
4000	-840	-1306	-1464	31
4000	154	-177	-265	31
3588	240	-176	42	31
1529	36	-44	257	31
392	-159	-16	677	31
182	-348	96	164	31
-66	37	279	-281	31
-179	77	230	-161	31
-135	157	206	-186	31
-48	248	134	-153	31
-711	-57	149	-89	31
-982	186	210	-39	31
-1218	799	351	1	31
-1526	1184	343	6	31
-1871	976	282	24	31
-3649	106	369	-262	31
-2869	-660	305	-287	31
2140	-676	42	-3	31
3868	-637	-382	300	31
154	-380	-714	325	31
-1925	183	-819	-290	31
186	48	-545	-553	31
2753	403	18	-434	31
2463	469	219	-43	31
1342	-569	49	803	31
1302	-820	44	1316	31
1008	-158	-165	881	31
437	433	-231	-345	31
-74	114	247	-533	31
-65	-72	352	-294	31
-452	-179	-70	-367	31
-779	-598	-436	-195	31
-618	-395	-428	-126	31
-250	-175	-234	79	31
186	97	337	127	31
-79	188	447	-17	31
-309	174	240	-355	31
-646	313	295	-529	31
-638	262	167	-572	31
-244	254	234	-406	31
-124	29	322	155	31
-359	-157	880	181	31
-1345	-101	1300	-105	31
-2137	86	943	1175	31
-2363	182	262	3158	31
-855	111	-1148	1723	31
1731	240	-1936	-1911	31
1742	393	-1011	-1963	31
304	498	-635	-457	31
563	317	-952	325	31
1712	119	-830	682	31
1203	261	-520	-394	31
615	110	411	162	31
657	-36	1386	773	31
41	29	1268	854	31
-91	38	177	49	31
-349	23	-14	-1439	31
-369	-127	141	-1018	31
-550	-199	-41	-788	31
-1801	-322	10	-4	31
-1223	-526	1	485	31
468	-512	167	-502	31
1047	-353	154	-682	31
908	-257	47	-493	31
221	-116	-206	652	31
-300	75	-170	1274	31
-1026	78	74	464	31
-1074	66	368	410	31
-100	46	1127	-74	31
-342	135	1089	82	31
-1772	391	459	310	31
-2046	310	-410	-118	31
-132	53	-1617	-288	31
1057	50	-1857	-850	31
1626	110	-1084	-172	31
1535	426	-367	717	31
-122	717	181	214	31
-809	124	587	-334	31
-742	-629	467	-355	31
388	-779	229	-142	31
839	-653	17	377	31
301	-331	162	632	31
-151	54	571	310	31
-1636	377	589	44	31
-828	830	201	75	31
974	880	-85	-287	31
1091	541	-87	-482	31
2294	216	-464	-281	31
2528	-401	-629	-352	31
618	-564	-640	73	31
57	-443	-464	214	31
56	-697	130	21	31
-117	-562	361	26	31
-254	-471	297	-208	31
-402	-647	259	-350	31
-898	-458	339	-447	31
-1601	-217	287	-198	31
-453	49	293	454	31
1187	190	151	407	31
777	272	-59	-144	31
-1786	525	-17	-207	31
-2500	369	-162	-23	31
-101	217	-178	768	31
492	489	-184	1758	31
-29	411	-91	836	31
1576	184	430	-376	31
1989	244	716	-174	31
-128	199	212	-436	31
-2180	-192	-252	123	31
-2441	-647	-718	161	31
-1072	-505	-1177	-1228	31
153	-58	-401	-830	31
1919	14	53	-89	31
2565	-106	12	-69	31
1141	-129	224	-157	31
-740	-38	171	-242	31
-2309	132	455	170	31
-1452	425	473	63	31
896	501	296	-314	31
3052	54	304	-439	31
2109	-131	282	-1003	31
896	24	539	-695	31
1355	-51	501	380	31
204	-36	-19	929	31
72	-2	-141	1783	31
204	4	86	2318	31
-83	147	-265	615	31
-1250	428	-653	-1141	31
-2502	893	-621	-873	31
-2628	857	-761	-320	31
-1696	190	-478	-125	31
1454	-457	-14	-210	31
2222	-955	189	-65	31
686	-982	123	130	31
-210	-517	154	-323	31
-379	-42	454	-439	31
-7	297	504	-490	31
-1119	747	416	-1064	31
-1203	1331	-214	27	31
717	1114	-518	1758	31
1839	219	-533	871	31
1222	-790	-681	-286	31
-10	-1585	-29	-179	31
-220	-1156	488	376	31
-89	-630	509	1192	31
171	-563	277	495	31
-23	-50	290	-695	31
-261	155	662	-661	31
-192	260	339	-382	31
-71	304	-69	34	31
84	159	-376	550	31
-155	159	-608	333	31
-26	-78	-345	-626	31
24	-239	-324	-848	31
-41	-310	-493	-407	31
-169	-277	-282	-10	31
-596	-93	175	635	31
-1630	164	420	375	31
-2107	287	773	-671	31
-839	111	875	-1269	31
-827	85	429	-1067	31
-681	211	369	-48	31
545	420	154	270	31
257	482	-366	1208	31
1302	483	-549	2024	31
1791	383	-713	485	31
169	-18	-816	-121	31
-1029	-174	-532	-935	31
-3729	-377	74	-1255	31
-3204	-616	381	-95	31
2605	-375	213	-276	31
4000	-159	190	-335	31
2761	-101	249	627	31
1201	46	168	1797	31
928	97	-131	706	31
545	109	-377	-242	31
198	234	-391	643	31
-235	342	4	297	31
-111	337	269	138	31
-1104	145	97	-252	31
-2062	-21	-44	-632	31
-753	-25	-104	-732	31
34	-11	575	-1487	31
117	79	1016	-1306	31
-674	83	566	429	31
-1825	71	46	1190	31
217	177	-208	-687	31
782	-41	24	-134	31
-405	-380	440	1460	31
1546	-702	261	771	31
1139	-623	-722	1046	31
-3434	-13	-1620	517	31
-4000	139	-1788	-450	31
-3270	252	-802	-97	31
2341	562	-132	-297	31
4000	672	-161	-289	31
4000	552	24	-166	31
3754	274	-59	-417	31
2478	58	215	-131	31
1139	-446	573	-72	31
1935	-670	685	113	31
906	-445	495	133	31
29	-316	340	-126	31
-655	-81	630	-153	31
-1658	77	576	-287	31
-1651	152	260	-422	31
-1314	410	197	-407	31
-803	854	357	140	31
-581	1033	267	-67	31
-52	582	346	-807	31
-1771	-131	94	-558	31
-1850	-577	-482	-62	31
-421	-791	-163	1544	31
-545	-1063	25	1716	31
-767	-940	-360	-788	31
-2150	-329	-529	-407	31
-2280	308	-959	-117	31
-1888	402	-989	-512	31
-1994	148	-128	328	31
-38	-8	323	-198	31
2389	-62	485	-523	31
2439	253	469	-482	31
1312	418	438	471	31
-964	337	691	412	31
-3856	82	649	-111	31
-4000	-163	342	417	31
964	-97	106	1085	31
4000	-112	-274	1594	31
2151	-148	-567	580	31
-2270	-223	-220	-48	31
-2280	-338	-90	-282	31
1363	-497	-139	-880	31
4000	-374	-80	-1207	31
3454	-14	-152	-1367	31
1893	122	230	-743	31
1234	195	219	-407	31
-936	93	-257	-304	31
-813	65	-368	-169	31
-99	389	166	-1142	31
-425	865	871	-275	31
-2468	832	485	1529	31
-2091	162	-424	1837	31
-556	-331	-1109	1675	31
-2426	-778	-688	502	31
-4000	-847	254	-515	31
-2825	-228	332	-633	31
3265	209	257	530	31
4000	332	516	479	31
4000	273	1426	-429	31
1428	33	1082	675	31
-1436	-46	-521	92	31
-1518	-9	-1395	-365	31
826	-40	-1719	-200	31
2513	-71	-910	-1144	31
1716	-187	382	-377	31
1522	-247	681	465	31
250	-116	465	369	31
-154	200	1163	-253	31
-151	315	1337	345	31
-1056	179	147	771	31
-743	266	-280	-1370	31
-889	227	-24	-795	31
-1370	138	-393	206	31
-2688	136	-774	250	31
-4000	90	-1225	1188	31
-3768	63	-1686	344	31
1779	-108	-1135	59	31
1676	-250	-543	1749	31
-83	-190	-515	2239	31
2943	245	-710	156	31
-621	616	-327	-1099	31
-2188	97	394	-991	31
1372	-498	746	-1347	31
890	-453	789	-1515	31
-3346	-505	332	-380	31
-3779	-442	-328	-267	31
3882	12	-458	153	31
4000	191	166	1002	31
2845	111	780	-295	31
1380	41	1230	-233	31
-1150	105	1231	-153	31
-1788	90	470	286	31
1061	-59	-486	477	31
2120	61	-818	-404	31
1541	80	39	-1073	31
1037	-42	1145	-2456	31
-771	-111	979	-2359	31
-959	-67	54	-1145	31
-2759	96	-363	-171	31
-4000	-24	322	-37	31
-79	-191	1367	1911	31
1840	-54	659	3547	31
-1237	195	-757	3881	31
-3466	175	-1529	2149	31
-2256	224	-1058	-1033	31
853	350	107	366	31
-1445	116	111	259	31
-2792	34	-18	501	31
-286	264	-292	42	31
-2843	549	-279	-1123	31
-833	742	222	-219	31
1335	771	446	-799	31
72	553	568	-122	31
2093	-225	-11	-726	31
397	-1059	-723	-1236	31
-537	-1072	-319	-1759	31
-821	-844	608	-1184	31
1428	-680	722	567	31
4000	-287	1103	667	31
2658	-87	981	1229	31
798	-96	-363	873	31
-924	-343	-991	368	31
-1292	-427	-1217	2	31
-20	62	-1010	-913	31
-488	365	-124	-973	31
785	208	714	-757	31
1036	-14	1222	-889	31
86	-52	1170	-412	31
-902	-1	165	-366	31
-1876	-140	-786	-683	31
-740	-142	-1271	556	31
-1521	160	-1130	1906	31
-4000	305	-96	1822	31
-1289	342	91	-55	31
4000	310	346	-1089	31
2615	69	456	65	31
453	-5	67	337	31
-465	-27	-353	479	31
-2121	-67	-1444	890	31
1243	145	-1120	244	31
2099	188	-73	678	31
1291	185	490	735	31
1143	212	635	-629	31
-224	92	255	72	31
-641	47	433	67	31
-2144	30	809	-435	31
-1560	49	1254	-115	31
-1144	-12	1431	-509	31
-254	-40	1069	-280	31
3239	-18	310	-881	31
1676	-17	-565	-1189	31
230	69	-1127	-368	31
1092	128	-1002	-775	31
-252	212	-98	-44	31
-73	101	125	1594	31
-304	-82	-382	150	31
-678	-62	-821	-710	31
-583	-197	-951	444	31
-1016	-493	-574	700	31
-2843	-383	209	-363	31
-4000	-47	719	-826	31
-2775	89	330	695	31
1584	240	-139	883	31
4000	322	-215	759	31
4000	236	-87	522	31
1566	33	-89	-532	31
559	-106	-149	-19	31
-867	-57	-140	705	31
-2246	-5	-339	643	31
-4000	34	-285	-197	31
-2442	-2	-235	-813	31
2437	-97	-168	-572	31
2046	-126	257	-390	31
1437	-50	719	-1443	31
1228	24	967	-1748	31
184	46	1187	920	31
-107	55	1370	3533	31
360	79	936	2825	31
1388	111	581	459	31
-156	-77	407	39	31
-1440	-256	-445	-1054	31
-1451	-170	-1308	-1865	31
-882	-12	-1588	-1506	31
-783	164	-1802	-1837	31
-4000	360	-1222	-1061	31
-2882	420	-473	-4	31
3948	21	-342	340	31
3811	-339	209	242	31
723	-200	423	723	31
-402	-139	506	568	31
724	254	546	166	31
4000	599	384	-71	31
2641	186	81	-245	31
-1166	-222	-249	351	31
1383	-747	-32	595	31
3099	-1005	349	448	31
1183	-631	508	-175	31
-647	-186	450	309	31
670	184	413	928	31
821	230	7	-166	31
-570	112	54	-743	31
-1749	252	496	-770	31
-1851	563	686	-823	31
-543	809	884	105	31
-332	861	445	966	31
-1196	680	-319	777	31
-1346	121	-761	107	31
-2309	-689	-667	-577	31
-3323	-800	-370	-444	31
-1013	-187	-430	-344	31
1540	-74	-594	-533	31
774	-390	-592	-497	31
513	-263	116	-1165	31
-12	-286	1172	-1329	31
-2208	-437	1820	87	31
-3658	-374	1438	3227	31
-3224	-291	-175	3662	31
-311	-17	-1354	25	31
829	66	-1831	-408	31
1335	164	-1774	1108	31
636	372	-982	1234	31
-685	572	-603	142	31
-2061	549	-738	-1116	31
-3749	199	24	-1207	31
1364	167	451	-1364	31
4000	113	-11	-607	31
3612	-137	187	-634	31
3197	-207	424	-653	31
224	59	553	-156	31
-1307	107	613	-4	31
-2473	-222	513	309	31
53	-95	294	-505	31
2036	38	274	-1142	31
285	25	842	-1404	31
1297	56	1413	-875	31
418	20	1343	818	31
238	204	506	2226	31
302	212	-527	763	31
-929	-81	-748	-935	31
-1107	-277	-83	37	31
-1400	-198	-1	669	31
-509	99	-305	1780	31
-939	119	-628	1700	31
-1172	-124	-768	830	31
984	-106	-1158	1347	31
543	106	-1511	-558	31
-791	290	-162	-1148	31
1269	237	574	-417	31
2378	-37	78	-1139	31
853	-140	-49	-695	31
-399	-44	-207	-350	31
-29	26	-136	-521	31
-357	-91	493	-676	31
-1151	-303	851	-539	31
-596	-292	481	-367	31
400	-69	70	202	31
440	48	-300	182	31
-794	234	-295	-236	31
-2614	406	119	413	31
-4000	305	235	856	31
94	147	353	1206	31
4000	4	360	836	31
4000	-132	236	144	31
3575	-205	-51	-557	31
1961	18	-270	-440	31
244	35	86	-267	31
-836	-308	197	-751	31
-164	-174	113	-533	31
1078	322	19	-843	31
556	520	-296	-635	31
945	391	-212	254	31
-87	-77	254	1388	31
-824	-704	1047	917	31
-1380	-666	1511	87	31
-3811	-236	985	319	31
-3734	54	-447	-289	31
-381	97	-1889	-1016	31
2284	147	-2203	-866	31
658	485	-1709	1004	31
565	411	-418	572	31
16	79	526	-149	31
-2290	-252	430	-61	31
-2873	-324	307	-733	31
-2294	-36	97	-252	31
784	81	131	191	31
1568	-1	249	763	31
447	-301	132	424	31
152	-202	59	254	31
236	159	220	38	31
-436	142	750	-217	31
-1571	197	1166	-915	31
-2056	431	1199	-1311	31
-1014	344	733	-116	31
299	-69	-436	-134	31
-814	-265	-796	-1059	31
-291	-586	-292	749	31
841	-705	-947	3189	31
1868	-79	-1031	1509	31
2589	210	-279	1369	31
-116	244	-219	586	31
-1595	114	19	-2352	31
-489	-295	491	-2456	31
-163	-162	1035	-2031	31
-1209	-28	1073	150	31
-2858	-84	569	2254	31
-4000	81	-234	3405	31
-464	248	-1408	1912	31
4000	455	-1817	-1785	31
488	466	-1202	-1320	31
-2626	197	-515	-726	31
-743	-116	259	-603	31
4000	-230	1331	602	31
4000	-147	1800	148	31
2011	1	712	-649	31
1508	308	-299	-234	31
-887	276	-1072	1216	31
-1958	-93	-1514	1257	31
787	-210	-462	-302	31
848	-121	-280	-905	31
-77	241	-192	-939	31
553	603	605	-861	31
498	347	685	-462	31
-172	-367	390	223	31
-229	-736	154	684	31
-1322	-470	495	-61	31
-1250	-180	741	-785	31
-502	-58	215	-715	31
-470	98	-751	-100	31
-129	214	-1091	304	31
-455	197	-529	501	31
-1651	133	125	226	31
-283	87	643	-219	31
760	-60	931	74	31
-1475	-145	1024	-74	31
-619	-83	1089	-350	31
-688	2	1207	233	31
-2029	4	561	359	31
1092	-49	-610	-33	31
2538	-56	-1216	-218	31
1601	-113	-1675	-5	31
862	-144	-1621	-334	31
410	-135	-770	-491	31
162	-121	37	108	31
-1531	-36	408	-184	31
-1623	182	682	24	31
1186	428	646	274	31
2686	385	120	-159	31
1663	325	-36	-746	31
236	260	380	-69	31
-781	-68	744	1582	31
-1325	-127	683	801	31
-593	-5	477	166	31
491	107	249	-32	31
-355	263	-211	-77	31
-3543	-140	-626	993	31
-2538	-553	-666	971	31
1795	-355	-766	175	31
598	-161	-416	-842	31
427	-132	535	-786	31
56	-75	1566	-758	31
-708	66	1962	-1128	31
2199	68	709	-764	31
1091	77	-937	-345	31
1612	277	-2573	927	31
291	472	-2955	1802	31
-1539	470	-639	292	31
1437	27	626	-259	31
1104	-451	194	483	31
-371	-491	24	300	31
-1490	-84	-417	1231	31
-2001	248	-437	754	31
-1906	194	113	-627	31
239	86	644	-667	31
1898	-152	640	-1712	31
1631	-185	744	-1522	31
1390	-24	850	-923	31
-509	-193	493	650	31
-3051	-174	407	2843	31
-4000	-17	154	1337	31
422	-225	-41	556	31
3982	-285	-357	1041	31
824	61	-545	-344	31
-219	312	220	-252	31
917	476	1151	47	31
2953	563	803	-116	31
1849	422	-656	56	31
-200	219	-1801	-1392	31
548	-195	-1929	-2226	31
-284	-194	-538	-1557	31
-635	91	681	-464	31
-189	-350	817	240	31
-520	-714	1095	-162	31
-2306	-644	954	226	31
-2571	-283	-24	740	31
1086	161	-540	147	31
1217	8	-692	-26	31
-1057	-28	-995	237	31
-2840	210	-387	-304	31
-3452	165	856	-849	31
66	106	1506	68	31
1029	104	807	233	31
2420	95	-179	593	31
4000	73	-842	1383	31
2067	67	-1047	-122	31
1522	2	-535	-717	31
706	14	121	-67	31
-300	154	781	-1057	31
-591	121	795	-1510	31
-481	155	403	-1177	31
-587	101	28	-908	31
-866	-132	-598	-72	31
-840	-95	-765	695	31
-1955	114	933	1413	31
-2264	200	2099	2259	31
-1966	34	690	3597	31
675	29	-693	2807	31
2817	51	-1661	327	31
2903	-169	-2023	-71	31
2058	-81	-1140	-318	31
-377	205	-178	-1159	31
684	422	360	-1494	31
901	261	258	-951	31
-1085	-403	182	-132	31
-642	-654	403	771	31
-1116	-383	655	525	31
-2249	-122	814	-1	31
-388	97	709	-247	31
1229	116	361	-1009	31
1370	103	13	-275	31
1116	125	-183	176	31
9	51	-854	-420	31
91	45	-1218	-646	31
-86	66	-821	-293	31
-236	62	-482	-744	31
-591	27	225	-698	31
-982	62	677	-107	31
41	155	434	-337	31
-182	105	250	-38	31
-1009	-116	453	-32	31
-2282	-268	1212	535	31
-1302	-161	1508	762	31
1775	-36	718	623	31
-1755	7	-119	466	31
-4000	65	-904	-629	31
-394	71	-1348	-1376	31
4000	66	-261	-1531	31
4000	126	296	-348	31
4000	23	-684	367	31
2000	-352	-640	758	31
-512	-525	-495	943	31
-1470	-343	-179	-19	31
-2385	-175	595	-378	31
-4000	59	378	339	31
-2193	530	204	1371	31
509	622	66	1052	31
-1047	237	194	230	31
708	108	350	502	31
2244	119	197	826	31
3386	126	-25	156	31
3590	119	-646	-254	31
1856	118	-748	-62	31
1982	115	-304	-305	31
525	-161	0	-595	31
7	-187	480	-247	31
-700	-24	391	206	31
-1497	-165	27	34	31
-1092	-151	87	-347	31
-441	-65	-69	-662	31
606	-211	452	-433	31
-233	-266	531	-242	31
-2452	-73	-226	-213	31
-2924	308	-197	562	31
242	621	-603	-483	31
1143	669	-880	-830	31
398	-80	-36	943	31
1138	-727	164	162	31
-411	-257	-56	-313	31
-458	-102	337	293	31
-698	-190	490	142	31
-2991	-238	292	-989	31
-2459	-312	275	-1559	31
-1671	26	-51	-131	31
-3143	81	-353	454	31
-943	-16	-14	2025	31
4000	-38	73	2153	31
2911	37	-35	-136	31
1511	234	190	55	31
2443	296	321	-354	31
1094	82	535	-1295	31
796	-283	663	-630	31
126	-207	124	228	31
-29	-23	-795	1669	31
213	60	-1228	726	31
-397	226	-457	-1296	31
-1070	183	536	513	31
-2440	15	1055	1673	31
-1111	-75	902	87	31
474	-22	-173	206	31
-69	5	-701	-24	31
1372	-52	-919	-927	31
1347	13	-1220	-1424	31
124	274	-712	-845	31
-405	453	-176	315	31
-2292	288	-43	-427	31
-1859	16	152	-556	31
-11	-261	492	-513	31
490	-325	600	-319	31
286	-89	447	6	31
453	-2	535	37	31
680	-7	661	-241	31
631	-29	765	-592	31
750	-169	520	72	31
607	-192	-387	-344	31
482	-191	-1039	-510	31
345	-107	-754	618	31
-443	72	2	2479	31
-1356	182	111	1534	31
-468	253	-270	-1038	31
834	172	-435	-536	31
-999	88	-368	-497	31
-1152	62	24	-409	31
648	44	156	-212	31
575	70	32	66	31
494	60	132	217	31
-121	21	283	-445	31
107	-42	427	426	31
-450	-6	515	1525	31
-1699	66	551	1670	31
-1838	-2	369	260	31
-3107	153	49	-636	31
-4000	436	-300	570	31
-89	124	-516	1038	31
4000	-458	-121	-321	31
4000	-528	318	-1515	31
2666	-238	182	-1837	31
2452	31	-187	-1286	31
338	11	-189	436	31
-1516	-112	67	1218	31
-2052	-49	299	848	31
-1427	-114	704	766	31
1636	-136	438	635	31
3025	170	-358	-134	31
1447	372	-577	-1210	31
1571	338	-674	-423	31
-1057	362	-1139	-145	31
-2876	459	-1012	-836	31
10	248	-348	44	31
884	-372	121	358	31
-697	-706	354	287	31
-1066	-571	224	214	31
760	-285	152	73	31
739	-77	26	-473	31
114	-33	35	-612	31
-172	78	197	-17	31
-1280	104	237	52	31
-1617	147	457	-33	31
-1126	267	435	181	31
761	289	96	563	31
1051	290	-171	-74	31
-260	65	-301	-792	31
-848	-105	-107	-728	31
-1375	-173	87	-367	31
-1964	-369	71	-410	31
-1764	-370	635	-745	31
1124	-41	1326	-642	31
684	413	1079	282	31
-1764	514	88	1086	31
1148	241	-1147	751	31
1284	167	-1585	1444	31
-1074	94	-927	1454	31
-1199	-398	-185	-182	31
-1168	-604	594	-169	31
467	-411	940	-160	31
-2913	-590	501	187	31
-3446	-682	-279	1191	31
3847	-239	-880	829	31
4000	386	-538	-267	31
3098	759	140	-764	31
542	714	383	-540	31
-1129	583	17	-766	31
1448	422	-275	-362	31
1147	268	-260	-314	31
-95	-60	101	-77	31
1625	-536	693	618	31
-119	-480	415	414	31
-1143	-122	266	434	31
-1957	-54	552	532	31
-853	-28	159	359	31
1021	121	-408	-645	31
-246	267	-792	-1833	31
736	315	-1162	-2194	31
487	-59	-562	-1320	31
276	-508	536	-763	31
227	-548	793	-658	31
-404	-221	624	1069	31
-563	164	-29	1805	31
-2061	259	-688	1871	31
-4000	335	-571	2164	31
-4000	375	163	1538	31
-817	245	696	321	31
3327	60	453	-1279	31
4000	-64	343	-1608	31
3276	-51	836	-890	31
1376	-78	887	662	31
1083	-22	267	1363	31
186	68	-537	450	31
-245	108	-1346	552	31
-678	228	-1626	-226	31
-1212	308	-1207	-895	31
-1066	140	-288	-212	31
-1941	-88	182	-278	31
-1637	-50	234	-623	31
1814	-245	849	-484	31
2098	-567	1948	-217	31
325	-624	1845	-512	31
455	-539	385	-1750	31
-413	-101	-200	-1683	31
-947	218	-256	395	31
-2908	238	-202	1054	31
-3647	123	-520	2800	31
24	116	-1842	3207	31
2697	403	-2172	-633	31
2117	529	-997	-1083	31
317	543	-313	184	31
518	249	-10	-251	31
1330	-284	245	-391	31
-371	-443	261	-262	31
-121	-275	758	-6	31
-213	-52	1293	-177	31
-2184	97	1983	603	31
-72	275	1518	723	31
-1650	387	-95	-91	31
-3230	411	-1514	-71	31
-385	224	-2188	-209	31
1627	-324	-1341	-803	31
4000	-475	-312	-1546	31
2763	-365	607	-1534	31
1700	-368	1114	-896	31
1113	-297	739	187	31
-340	-526	297	1501	31
-1160	-358	-177	2063	31
-3964	-171	-511	632	31
-2843	-502	-322	-753	31
1289	-126	81	-375	31
702	287	343	-666	31
-442	320	496	-1232	31
678	360	573	-379	31
102	260	631	642	31
1299	267	463	166	31
1724	155	162	622	31
683	147	-91	908	31
270	216	-205	50	31
686	83	-31	375	31
2482	114	34	113	31
683	122	-72	-122	31
212	79	-37	-88	31
320	220	249	-305	31
-615	58	849	-244	31
-985	-283	708	-112	31
-1824	-216	-359	252	31
-573	-116	-1277	-152	31
-126	-44	-1840	-408	31
181	108	-876	437	31
217	145	407	1022	31
-891	224	277	348	31
-3098	315	149	-29	31
-2469	325	210	-254	31
2052	245	154	-484	31
1500	15	133	98	31
-90	-227	8	-74	31
-53	-187	-122	-164	31
-574	-380	-22	-414	31
716	-686	239	-527	31
745	-390	643	-346	31
497	-72	960	-560	31
-92	41	656	-613	31
-1665	25	411	-572	31
-1462	-94	259	285	31
504	-84	-290	1567	31
280	34	-643	1673	31
-1661	263	-559	2098	31
-864	421	-979	2651	31
-47	248	-1370	-846	31
89	-116	-638	-1919	31
1869	-174	-602	-989	31
2344	-52	-676	-2178	31
520	-42	99	-359	31
789	12	260	1006	31
121	64	344	1537	31
-1187	140	374	-130	31
-47	154	360	-1670	31
654	106	573	-754	31
482	91	776	-875	31
131	-34	766	555	31
631	48	151	1384	31
-59	147	213	317	31
-1499	-29	571	-1094	31
-2080	-172	786	-892	31
-1818	-179	545	1141	31
-2558	47	-843	2154	31
-2671	62	-1509	735	31
1488	-204	-1194	-935	31
2127	-279	-598	-1094	31
17	-182	-136	-629	31
1911	144	-243	174	31
1475	243	-235	808	31
-82	32	-64	195	31
1831	-41	174	-498	31
373	6	190	-382	31
-769	223	-149	-1039	31
1134	227	12	-248	31
496	153	152	717	31
616	283	61	258	31
829	127	197	-73	31
-38	-353	364	435	31
432	-604	510	582	31
220	-558	462	-186	31
-121	-430	186	94	31
7	44	53	2	31
-367	351	291	36	31
