File Name: not saved
Channel 1: 'EMG 1', 19131 values, raw ADC, no filters.
Channel 2: 'EMG 2', 19131 values, raw ADC, no filters.
Channel 3: 'EMG 3', 19131 values, raw ADC, no filters.
Channel 4: 'EMG 4', 19131 values, raw ADC, no filters.
Digitals combined (event=16, d=8, c=4, b=2, a=1): 19131 values, .

-47	-29	329	3	31
310	-97	748	-76	31
38	-170	467	-136	31
-403	-132	40	-142	31
-162	56	-494	-220	31
44	102	-758	-223	31
97	235	-265	208	31
-34	426	410	312	31
-447	375	187	172	31
-14	123	-353	264	31
232	-83	-859	589	31
89	-262	-1288	254	31
320	-335	-762	-390	31
157	-187	432	-443	31
106	-56	827	-452	31
58	57	536	-337	31
106	13	266	-47	31
162	-155	9	133	31
31	-174	-84	96	31
86	-38	-47	-54	31
76	14	397	-168	31
121	29	725	-48	31
-106	138	344	171	31
-229	12	-161	123	31
-116	47	-595	52	31
-209	411	-597	-117	31
-126	405	117	-86	31
77	71	387	84	31
221	-249	241	78	31
56	-305	106	252	31
-200	-190	-120	325	31
-31	-240	137	137	31
109	-171	237	36	31
-93	-8	295	-70	31
-367	66	491	2	31
-22	17	23	374	31
473	-47	-501	288	31
202	102	-519	-297	31
46	260	-245	-594	31
132	145	94	-192	31
9	-85	209	180	31
-257	-124	-147	13	31
-286	-74	-670	-96	31
77	-82	-535	18	31
42	-16	-145	31	31
-291	63	71	13	31
-90	21	360	-271	31
330	-26	476	-522	31
264	-46	237	-18	31
181	-21	-21	439	31
-10	0	294	254	31
-22	133	560	-90	31
198	653	51	-344	31
104	909	-403	-342	31
109	468	-465	163	31
-76	-160	-555	191	31
-210	-698	-295	41	31
11	-1056	87	161	31
-31	-749	81	52	31
-423	-79	238	67	31
-395	-54	418	-27	31
204	-53	309	-48	31
90	181	-19	23	31
-113	89	-313	-197	31
328	-34	-346	-294	31
193	-150	-197	233	31
137	-135	117	386	31
336	39	235	-20	31
-4	109	322	8	31
-425	10	162	99	31
-344	35	69	124	31
-65	299	483	-4	31
-56	414	408	-157	31
67	343	-19	208	31
157	317	-495	533	31
10	234	-816	361	31
-205	12	-558	-27	31
-248	-143	56	-380	31
-134	-104	403	-38	31
-143	-13	338	47	31
-27	-5	120	-254	31
357	16	-127	-32	31
486	-23	164	-31	31
350	24	325	-42	31
67	112	74	-231	31
32	-84	-157	-235	31
204	-261	-402	-2	31
-193	-160	-546	-347	31
-34	-33	-284	-315	31
33	-73	343	42	31
-128	-48	470	-104	31
-52	80	443	-171	31
-382	267	427	107	31
-274	347	122	469	31
-289	217	-112	585	31
-99	80	-64	349	31
353	-168	171	234	31
374	-307	64	288	31
57	-209	-345	60	31
-29	-74	-519	-144	31
430	44	-404	-6	31
279	131	-484	-184	31
-109	215	-323	-207	31
-161	26	234	-70	31
-22	-189	521	-42	31
-76	-310	628	119	31
-275	-478	642	148	31
21	-265	395	-12	31
255	-1	-190	-164	31
-65	-2	-584	-84	31
-643	-7	-536	164	31
-508	-34	112	156	31
-203	-12	417	-116	31
49	146	-281	57	31
655	163	-382	-15	31
412	156	-54	-372	31
107	329	152	-183	31
-153	338	310	-167	31
-500	179	-5	-664	31
-39	136	-488	-756	31
385	332	-691	-274	31
309	479	-331	355	31
-448	375	69	1146	31
-650	116	239	797	31
198	-305	645	275	31
304	-709	1210	627	31
109	-607	941	342	31
182	-32	48	-215	31
-46	89	-382	-603	31
-38	-72	-1112	-532	31
152	-155	-1419	-401	31
115	-407	-650	-305	31
268	-356	-48	7	31
133	-227	262	-24	31
-106	-131	332	129	31
159	64	244	64	31
31	21	373	-7	31
-29	14	608	182	31
-74	87	650	127	31
-372	194	432	191	31
-144	271	-17	-17	31
-138	215	-64	-513	31
177	120	177	-452	31
616	-67	113	-126	31
129	-69	28	-72	31
76	79	-331	536	31
46	109	-474	480	31
-493	-42	-402	-299	31
-111	-122	-309	-19	31
332	52	242	592	31
124	79	139	692	31
59	-16	-324	203	31
-287	-97	-399	-25	31
-366	-153	-276	-118	31
-94	-91	141	-501	31
-316	-11	199	-152	31
58	10	206	59	31
394	72	142	-316	31
221	210	-49	-347	31
269	249	113	-77	31
139	259	104	161	31
85	165	347	182	31
-12	66	320	97	31
105	61	-170	-224	31
7	39	-302	-364	31
-420	82	-488	191	31
-404	52	-474	998	31
-305	-24	-260	808	31
-121	-38	87	-319	31
-26	-14	323	-397	31
163	-16	34	-309	31
202	50	174	-556	31
49	121	642	-18	31
-81	24	1017	217	31
26	112	962	44	31
111	179	435	-54	31
-189	-54	-160	132	31
14	-250	-1045	429	31
-74	-367	-1201	127	31
-306	-393	-898	-292	31
47	-357	-668	-265	31
273	-225	-39	-257	31
296	10	170	-94	31
171	6	194	58	31
115	-22	470	114	31
312	77	492	44	31
81	179	200	-304	31
-184	182	-8	-52	31
-62	12	-23	254	31
-181	39	-31	-12	31
-59	345	182	-120	31
-221	479	197	99	31
-175	31	-104	87	31
-164	-268	-236	107	31
-458	-202	-212	24	31
344	-362	165	-215	31
244	-205	435	-146	31
-411	-140	352	-258	31
16	-288	377	-46	31
197	-64	381	401	31
121	77	381	590	31
280	171	46	618	31
254	268	-369	312	31
77	254	-649	-109	31
-144	187	-882	-447	31
-102	124	-439	-444	31
119	117	64	-150	31
-144	72	123	-74	31
-496	39	158	61	31
-292	-3	264	228	31
171	-34	392	201	31
363	-34	435	283	31
492	-51	189	103	31
408	-22	-351	-207	31
155	89	-682	-267	31
157	243	-540	-240	31
219	320	75	-354	31
183	98	1008	-288	31
-48	-388	1368	-159	31
-199	-590	821	-122	31
-81	-654	-125	246	31
-33	-508	-1300	630	31
-227	49	-1962	578	31
-318	258	-1132	153	31
-241	272	-407	-80	31
-347	259	-311	-171	31
-334	116	-81	-340	31
-213	51	44	-345	31
-39	30	415	43	31
64	24	458	610	31
81	-7	620	422	31
280	26	736	-32	31
126	22	257	293	31
-234	-27	-245	146	31
-122	-3	-320	-903	31
189	45	94	-692	31
302	96	35	279	31
142	145	67	42	31
-111	110	300	-150	31
-46	12	204	-74	31
-175	-36	106	-329	31
-243	-61	190	-114	31
-16	295	275	96	31
-148	628	147	178	31
96	179	-50	26	31
360	-266	-146	121	31
31	-458	76	313	31
-52	-493	287	118	31
129	-244	327	222	31
219	-194	116	69	31
39	22	-11	21	31
-65	155	91	115	31
115	-106	175	141	31
-27	-9	46	-32	31
-372	158	-347	-221	31
-232	17	-296	197	31
144	-91	-746	568	31
52	76	-1278	169	31
-184	111	-271	-732	31
-71	-104	500	-723	31
-122	-86	327	-355	31
-301	26	264	79	31
-206	-16	7	338	31
-39	-5	-214	169	31
189	81	-137	26	31
564	50	-31	-239	31
814	61	51	-39	31
426	44	-12	75	31
54	-9	66	173	31
-91	57	273	60	31
-210	12	570	-71	31
-46	-16	871	-5	31
-42	-12	660	-224	31
-112	-1	170	164	31
-115	79	-567	237	31
2	46	-1146	130	31
132	26	-735	289	31
156	56	-259	-37	31
4	64	-299	-129	31
-49	122	-217	-104	31
75	156	259	-57	31
-64	96	765	10	31
26	-1	735	49	31
96	-94	485	35	31
11	-119	192	38	31
-121	-97	-324	-81	31
-134	-94	-529	-472	31
-152	-92	-445	-138	31
-113	-79	-250	391	31
91	-4	-74	310	31
-28	16	66	-194	31
54	-6	122	-198	31
17	-54	119	67	31
-5	-185	262	-47	31
30	-147	458	-76	31
-66	-17	439	-209	31
-136	17	164	-66	31
-113	57	-19	134	31
45	96	-568	485	31
-142	157	-665	804	31
-146	206	-143	390	31
-10	214	122	-207	31
351	163	143	-428	31
355	46	41	-336	31
-250	40	-62	-123	31
-33	185	-251	119	31
16	356	-179	51	31
-344	189	67	147	31
-62	-227	165	34	31
10	-268	50	-362	31
-175	-211	423	-354	31
-7	-312	951	76	31
186	-221	638	-184	31
435	-27	197	-493	31
262	65	-232	150	31
-89	-38	-640	72	31
-126	-71	-317	-67	31
-232	82	-29	-93	31
-111	330	-355	-141	31
49	313	-181	-35	31
54	-121	302	-149	31
126	-365	90	458	31
300	-510	-62	1099	31
270	-373	11	916	31
51	-84	-232	353	31
152	-66	-475	-126	31
77	153	-771	-281	31
-30	270	-541	-548	31
-14	96	4	-560	31
-275	44	292	65	31
99	83	190	204	31
36	11	-455	-227	31
-269	4	-678	-543	31
234	124	-503	240	31
81	244	243	680	31
-205	177	1133	-234	31
-131	-66	1329	-113	31
-127	-73	1146	-22	31
-141	15	447	-180	31
-134	26	-378	-92	31
-112	30	-766	-146	31
-127	30	-698	88	31
-240	29	-516	-25	31
-136	-9	-2	195	31
64	-21	288	379	31
-90	-9	180	283	31
61	-46	128	92	31
375	-141	-5	-300	31
203	-115	82	-348	31
-33	-22	-59	-330	31
254	35	314	-334	31
297	118	659	-229	31
-199	191	335	-240	31
-222	275	305	-137	31
11	216	169	322	31
-90	102	42	841	31
71	27	56	465	31
66	-87	-234	2	31
-214	-90	-493	355	31
58	-166	-201	143	31
127	-232	8	-245	31
179	-120	24	-510	31
121	-47	167	-538	31
-82	11	-129	-275	31
66	90	-216	-252	31
-210	126	497	-38	31
-316	-49	724	35	31
-147	-186	462	122	31
60	-101	4	417	31
310	-129	-991	255	31
-125	-142	-1161	-34	31
-230	-85	-812	305	31
94	-14	-567	330	31
27	127	207	-126	31
144	66	414	-31	31
259	-58	65	176	31
181	36	-79	381	31
-176	177	-134	316	31
-428	199	-99	34	31
-194	190	-169	-214	31
-169	143	109	-432	31
-200	66	254	-126	31
57	36	-58	86	31
354	-25	-47	205	31
418	-35	344	-10	31
493	-9	639	-203	31
355	-19	214	-24	31
-76	1	-337	33	31
-125	28	-488	39	31
54	11	-114	-203	31
145	-19	382	-126	31
-66	-39	312	15	31
-307	-89	230	-17	31
-234	-96	60	-33	31
-135	-61	-212	-36	31
-74	43	-136	-55	31
71	157	74	-171	31
-22	121	111	53	31
61	98	279	107	31
177	49	420	-81	31
-56	-107	338	18	31
62	-225	254	147	31
104	-254	53	-227	31
-112	-12	-1	-217	31
-29	553	-207	320	31
92	766	-661	305	31
-259	204	-821	537	31
-147	-358	-276	-46	31
265	-647	165	-500	31
-70	-835	67	73	31
-412	-367	22	-255	31
-364	220	-6	-328	31
36	68	400	-145	31
189	-152	690	131	31
-7	-4	460	-136	31
-91	192	289	-36	31
119	201	-37	392	31
299	41	-648	41	31
55	-9	-586	394	31
-121	-52	-330	146	31
-119	-186	-757	-56	31
-126	-136	-523	264	31
-64	100	209	196	31
-27	180	156	-177	31
-19	135	-122	-432	31
245	170	139	-407	31
350	104	270	-12	31
91	-1	375	570	31
49	-103	624	186	31
210	-106	469	-211	31
142	-16	438	-247	31
45	1	283	145	31
161	90	-109	214	31
124	141	-245	-354	31
-54	139	-134	-237	31
-29	159	-91	93	31
47	129	-77	333	31
129	71	-240	102	31
220	-22	-675	-14	31
165	-54	-685	313	31
127	-13	-253	104	31
47	53	157	1	31
-169	60	146	-37	31
-194	-107	147	-113	31
-170	-155	232	-206	31
-334	-59	214	-454	31
-332	-26	53	-218	31
-78	41	-220	100	31
6	139	75	120	31
-235	149	453	174	31
-257	12	330	-116	31
-47	-173	58	-563	31
-29	-215	-282	-370	31
-130	-143	-133	165	31
75	-185	165	192	31
252	-157	219	-84	31
16	112	715	-21	31
51	268	922	139	31
-70	189	491	637	31
-151	99	-103	961	31
50	72	-403	620	31
86	136	-249	-133	31
49	103	-397	-876	31
19	-110	-643	-473	31
280	-184	-705	-14	31
-11	-128	-915	-74	31
-293	-66	-841	302	31
-27	14	59	525	31
-295	180	615	336	31
-296	384	352	127	31
68	242	474	146	31
209	-210	94	-341	31
324	-405	-691	-733	31
194	-136	-521	-432	31
35	-2	-132	54	31
11	-50	288	483	31
151	18	660	-19	31
95	19	530	-4	31
-57	-2	250	250	31
100	-37	-159	25	31
-78	16	-484	76	31
-101	96	-428	-76	31
172	69	12	-70	31
170	-65	442	-128	31
156	-189	503	-128	31
-94	-11	556	143	31
-421	62	358	62	31
-456	-11	181	-301	31
-483	104	250	-387	31
-169	127	180	-183	31
147	82	200	-212	31
87	82	169	-270	31
349	110	-217	-4	31
239	62	-810	347	31
17	5	-822	-41	31
50	43	-237	-57	31
7	-56	397	636	31
136	-62	566	459	31
104	187	190	118	31
154	384	-386	62	31
166	147	-1005	-229	31
106	-235	-895	-482	31
42	-390	-359	-124	31
41	-446	-58	506	31
98	-188	276	402	31
154	11	485	141	31
158	83	478	4	31
-99	352	431	-245	31
-26	240	479	-140	31
-233	-24	452	-132	31
-177	-114	137	-87	31
316	-294	-12	49	31
81	-342	-78	116	31
0	-193	-409	73	31
-9	-122	-435	37	31
-134	-131	-87	142	31
-223	-12	154	-295	31
-244	-44	681	-493	31
-80	-205	1168	-129	31
-132	-127	712	-5	31
-9	99	-245	107	31
12	282	-1305	166	31
-228	223	-1608	136	31
-227	120	-423	160	31
-96	137	264	144	31
65	121	174	137	31
42	88	445	164	31
26	40	723	111	31
48	7	724	-66	31
-3	47	173	-36	31
127	54	-461	467	31
262	54	-1270	461	31
339	166	-1379	-389	31
-1	225	-192	-551	31
-194	155	516	-394	31
-32	14	742	-279	31
-159	-71	549	-48	31
-115	-14	387	-77	31
3	-34	621	-161	31
97	-97	522	-490	31
21	-117	219	-75	31
-83	-94	-545	459	31
106	-64	-1330	162	31
-31	-108	-1341	159	31
26	-102	-530	150	31
60	-41	199	307	31
-148	-12	383	380	31
-146	-19	453	48	31
-263	42	210	-29	31
61	43	261	-287	31
239	10	323	-208	31
64	68	-14	48	31
8	42	-72	358	31
-157	37	18	340	31
-150	74	47	-187	31
-77	164	320	-149	31
62	145	738	-127	31
107	-27	641	99	31
-257	3	412	137	31
-437	43	103	-79	31
-116	-21	-444	19	31
101	-53	-1001	-107	31
254	-39	-884	-174	31
371	34	-63	-395	31
353	-40	432	-426	31
217	-122	826	-216	31
83	45	961	-131	31
89	35	515	231	31
22	-292	-74	875	31
223	-275	-234	1309	31
249	229	-362	306	31
-6	435	-439	-471	31
-24	147	-19	177	31
-675	-139	-726	347	31
-1010	-317	-1755	201	31
-184	-359	-1131	-540	31
250	-112	187	-1072	31
186	49	778	-491	31
318	-57	511	-365	31
432	87	164	-134	31
422	273	64	-81	31
249	282	-159	123	31
-53	176	-348	634	31
-99	-10	32	-248	31
-249	-56	565	-249	31
-426	-76	811	181	31
-119	28	763	-95	31
111	86	358	253	31
117	-32	-27	420	31
273	-54	22	364	31
134	-74	-206	-70	31
-4	-22	-347	-511	31
91	121	92	-494	31
-67	262	197	50	31
-55	250	156	304	31
97	45	-79	20	31
58	-249	-383	-24	31
169	-530	-378	-174	31
465	-388	-77	-91	31
240	-115	194	97	31
-432	2	172	209	31
-615	-19	184	411	31
-348	-25	-159	329	31
48	101	-380	-137	31
149	22	-184	-261	31
-103	36	147	-301	31
-203	49	444	-405	31
-228	-5	483	117	31
-32	72	316	285	31
43	173	49	312	31
27	406	-249	215	31
255	411	-486	143	31
290	244	-105	263	31
224	109	-12	-44	31
252	-331	-78	-86	31
219	-604	132	41	31
32	-317	-82	-112	31
-132	-14	-46	-183	31
-146	11	-185	-89	31
-197	33	-468	-274	31
-193	167	-182	44	31
78	215	-6	169	31
-45	156	84	131	31
-208	49	142	268	31
-4	-34	-22	-50	31
27	-14	-81	-43	31
80	-4	4	-186	31
180	7	139	-270	31
322	9	246	-357	31
71	-97	188	156	31
-176	-150	50	868	31
51	-132	-46	198	31
86	-67	-68	-344	31
-34	36	67	-101	31
-89	190	241	-194	31
-324	277	298	-256	31
-476	107	141	246	31
-200	-99	6	-84	31
11	-78	161	-275	31
192	217	268	309	31
182	328	-246	104	31
-1	104	-583	37	31
99	-7	-588	89	31
134	-151	-347	-233	31
-162	-170	201	31	31
-131	43	478	426	31
-61	-107	488	-123	31
-299	-347	-166	-621	31
-39	-308	-363	-289	31
-22	-96	-131	245	31
-44	64	-208	662	31
261	37	169	691	31
-82	12	16	603	31
-572	-10	-984	-51	31
-187	26	-956	-557	31
355	61	-271	-623	31
209	117	282	-754	31
175	139	744	-344	31
20	10	683	-209	31
11	-57	581	-7	31
322	44	380	119	31
-62	186	99	-22	31
14	84	-313	324	31
122	-76	-486	511	31
3	-61	-48	654	31
559	8	175	197	31
305	38	435	-222	31
-173	-82	613	-109	31
-101	-135	329	-238	31
-61	35	235	-346	31
-101	108	34	-773	31
-345	111	-225	-340	31
-102	129	-331	778	31
177	74	-444	806	31
-143	52	-149	246	31
-18	-21	59	-1	31
77	-116	-91	-324	31
-335	-104	-120	-232	31
51	-79	-47	125	31
133	-29	57	199	31
23	5	260	457	31
267	-16	445	107	31
148	-168	492	-46	31
247	-298	314	-118	31
-203	-144	96	-390	31
-273	-109	-280	-144	31
84	-59	-781	22	31
265	156	-583	158	31
355	185	-313	106	31
102	231	-362	-1	31
91	237	63	-205	31
-166	146	591	-513	31
-307	54	861	-392	31
-195	4	734	220	31
-101	-26	209	355	31
114	-153	-448	-129	31
167	-106	-798	-38	31
27	22	-181	355	31
-22	83	131	194	31
122	93	-243	-19	31
113	-38	-319	-29	31
54	-129	-595	-128	31
-224	-89	-480	-205	31
-266	35	-71	-236	31
1	173	367	-103	31
-269	285	741	71	31
-259	252	328	247	31
-106	96	1	-97	31
-144	-133	-268	-235	31
72	-308	-407	608	31
66	-151	-189	638	31
143	-36	327	-260	31
345	-61	470	-339	31
186	17	139	93	31
112	152	367	201	31
94	365	486	287	31
-36	323	284	-24	31
46	-24	280	-285	31
-48	-162	195	-231	31
-270	-105	-107	-199	31
-82	-74	76	257	31
193	-174	37	422	31
102	-490	-146	-477	31
-413	-510	330	-826	31
-395	-234	33	262	31
-523	-127	-664	640	31
-547	27	-1055	235	31
482	129	-1407	32	31
92	295	-1021	86	31
-262	297	-77	85	31
220	31	252	177	31
213	155	-28	445	31
437	416	258	312	31
260	512	545	166	31
370	275	540	-135	31
406	6	73	-266	31
195	-159	-489	-612	31
199	-413	-436	-684	31
31	-416	-475	-228	31
-36	-159	321	-73	31
-135	82	1205	119	31
-149	67	1028	-199	31
-235	-198	520	-319	31
-121	-379	78	109	31
11	-165	-254	598	31
252	2	-227	442	31
514	-32	246	-164	31
195	64	411	-215	31
-57	114	234	-383	31
-339	174	-74	-147	31
-360	163	-418	104	31
-183	-37	-158	25	31
-242	-76	384	152	31
-259	103	586	269	31
-205	161	345	376	31
-323	184	-291	307	31
-679	242	-852	493	31
-576	152	-953	161	31
-116	161	-430	-144	31
390	247	-65	181	31
783	137	43	-110	31
614	-27	90	-181	31
254	-149	51	211	31
-22	-330	-272	457	31
-43	-220	-446	-450	31
324	84	199	-1281	31
531	89	272	-575	31
269	94	60	-415	31
-137	6	79	-526	31
-193	-222	311	-119	31
11	-285	661	197	31
164	-327	739	298	31
159	-234	569	235	31
-28	-57	-284	172	31
-297	55	-500	73	31
-132	182	-104	103	31
-63	317	-92	47	31
-195	492	245	55	31
230	510	412	387	31
197	396	-269	430	31
-285	313	-799	-226	31
-296	-142	-1014	-206	31
-9	-691	-671	310	31
36	-676	167	423	31
114	-263	174	635	31
283	31	138	443	31
-14	-126	197	224	31
-300	-311	-23	119	31
-259	-197	342	-107	31
-56	-141	879	-120	31
48	-98	989	123	31
29	66	620	19	31
39	48	-360	-585	31
59	39	-595	-668	31
2	225	-408	-505	31
-48	334	-645	-325	31
-104	387	-186	-165	31
-389	338	29	6	31
-346	180	176	-10	31
33	-18	574	-124	31
398	-302	433	394	31
351	-254	92	426	31
-58	47	-152	-195	31
-45	57	-92	-159	31
-208	-8	486	4	31
-148	22	1001	-189	31
99	162	342	70	31
-450	296	-1217	72	31
-266	357	-1958	-173	31
442	412	-1504	42	31
492	281	-472	99	31
660	223	1113	-196	31
544	-72	1411	-332	31
-88	-617	462	-221	31
-252	-713	-190	-182	31
-186	-374	-309	549	31
-281	-120	47	648	31
-112	-145	196	-382	31
159	-64	485	-540	31
226	-45	320	-65	31
136	42	-826	808	31
58	160	-1320	1276	31
-36	67	-738	738	31
-74	-6	-270	-38	31
-19	-22	17	-359	31
91	-15	365	-315	31
142	-74	548	-47	31
-6	-17	642	333	31
-17	-91	881	211	31
-251	-272	626	163	31
-315	-262	-280	-294	31
-34	-158	-658	-510	31
-97	7	-536	-180	31
-131	60	-61	-497	31
97	141	801	-520	31
259	347	829	-206	31
-344	463	274	22	31
-771	315	-239	302	31
-165	112	-1056	413	31
31	47	-498	107	31
74	179	672	-211	31
267	488	306	-182	31
179	419	-101	-112	31
171	91	-285	-217	31
260	-139	-469	-459	31
129	-269	-125	-494	31
-136	-262	245	-46	31
179	-421	-56	624	31
56	-593	-413	692	31
-339	-267	92	352	31
9	170	517	324	31
97	182	508	310	31
151	-52	129	208	31
197	-202	-253	297	31
49	-47	-301	294	31
50	-29	128	-363	31
-131	-217	1248	-1136	31
-272	-96	1570	-939	31
-106	108	679	-399	31
21	117	-712	339	31
-52	127	-1513	795	31
109	117	-1339	307	31
197	23	-729	60	31
-384	139	-14	-19	31
-528	190	-36	-108	31
123	172	249	-159	31
531	225	517	-150	31
599	112	255	85	31
514	135	98	-242	31
-299	120	-103	-513	31
-516	-9	1	145	31
263	-35	-197	871	31
-43	-10	-536	528	31
-135	61	-443	-336	31
269	94	-274	-392	31
225	64	7	-108	31
245	-39	485	151	31
-51	-106	828	180	31
-226	-193	1202	-22	31
-142	-189	1217	265	31
-29	7	654	142	31
50	-43	94	405	31
-140	-485	-631	267	31
-204	-587	-1310	-688	31
-299	-103	-1277	-377	31
-282	147	-689	-175	31
-97	134	-491	46	31
-279	186	14	593	31
-567	237	848	335	31
-145	224	1278	271	31
361	46	1020	121	31
181	-183	25	-57	31
153	-226	-658	106	31
227	-48	-1147	-87	31
213	20	-621	143	31
296	48	-169	273	31
610	149	-165	-223	31
516	130	490	-347	31
-166	172	319	-183	31
-223	147	290	-447	31
136	-50	293	-69	31
-240	-109	-353	440	31
-432	-9	-469	-322	31
162	40	-267	-416	31
-115	53	-189	-404	31
-360	56	60	-623	31
-46	-15	412	-547	31
-5	-54	372	-186	31
51	-91	368	344	31
87	-36	302	319	31
383	34	-52	265	31
230	-57	-133	77	31
-253	-124	86	592	31
-338	-47	24	1138	31
-121	37	-347	412	31
185	-44	-793	172	31
267	-44	-877	-104	31
127	86	-445	-841	31
-235	89	44	-324	31
-116	33	588	-1	31
79	3	891	-82	31
224	54	1040	116	31
539	100	911	-66	31
328	37	214	77	31
-54	-36	-335	51	31
16	-67	-448	-309	31
380	24	-310	-718	31
46	71	380	-768	31
-251	81	728	-340	31
-359	185	-109	135	31
-334	311	-440	632	31
204	392	-828	776	31
112	114	-874	551	31
-55	-369	189	147	31
-88	-613	330	-42	31
-136	-405	493	42	31
-61	-120	606	324	31
-31	-225	299	262	31
-193	-288	175	-161	31
-420	-5	-38	-8	31
-161	315	-238	152	31
-53	323	-525	-37	31
-130	418	-380	9	31
-151	536	-362	-11	31
9	187	-463	-219	31
106	-123	-663	-256	31
-159	-359	-1205	-130	31
-294	-490	-943	-427	31
-377	-175	-42	-891	31
32	106	714	-179	31
264	140	743	805	31
503	202	613	416	31
530	77	536	-17	31
-87	-56	317	83	31
30	44	318	-115	31
-183	-138	366	-27	31
-179	-234	519	79	31
36	-91	694	-61	31
-252	-115	667	-330	31
-77	-135	174	-364	31
39	-252	-230	402	31
-39	-151	-131	801	31
-46	243	61	379	31
94	376	5	217	31
380	141	-170	304	31
548	-50	-26	427	31
492	29	-4	84	31
344	62	-161	-176	31
-52	74	-418	310	31
-178	100	-282	-29	31
4	189	366	-391	31
-229	251	-104	131	31
-174	126	-1190	393	31
113	73	-1669	-152	31
-164	40	-1157	-474	31
-47	-10	335	-548	31
393	-30	1463	-902	31
-33	-44	1141	-944	31
-424	-29	167	-771	31
-423	-108	-633	107	31
-259	-119	-1064	825	31
-334	26	-299	269	31
-412	17	479	327	31
112	-91	788	276	31
92	-22	529	161	31
-109	96	380	735	31
-86	-84	444	294	31
-226	-385	-260	-162	31
-266	-282	16	-718	31
-41	-101	417	-598	31
50	-32	-102	-108	31
-204	78	-399	-502	31
174	165	169	96	31
886	187	458	710	31
761	169	122	582	31
559	332	-335	334	31
683	363	-1220	-550	31
306	293	-703	-416	31
-64	262	219	515	31
-68	-195	139	569	31
-250	-744	499	423	31
-541	-658	924	229	31
-332	14	797	-299	31
-23	382	242	-661	31
186	184	-209	-325	31
214	2	177	186	31
-87	1	798	85	31
31	-97	488	-189	31
98	-367	-746	-190	31
134	-377	-1708	-245	31
-17	-178	-1607	-296	31
-195	-139	-869	-235	31
69	-74	-215	311	31
-102	15	-60	665	31
-84	196	130	586	31
141	390	608	291	31
46	227	825	109	31
75	236	663	257	31
255	338	239	-219	31
135	-23	-285	-660	31
-334	-315	-888	-620	31
-89	-277	-863	-780	31
61	-262	-303	-953	31
-292	-52	192	-168	31
-259	202	501	541	31
-243	231	317	668	31
-5	475	711	516	31
42	488	1125	523	31
-134	103	1012	815	31
77	-130	819	84	31
289	-285	102	-17	31
321	-430	-237	-185	31
264	-471	-479	-580	31
-10	-423	-535	-288	31
-281	-318	-196	-154	31
-247	-104	-309	117	31
-303	-11	-668	117	31
-398	117	-345	168	31
-462	348	265	184	31
-380	372	134	127	31
32	425	-101	-36	31
59	335	-226	-193	31
7	275	-109	-146	31
119	256	-36	-49	31
104	41	-74	76	31
474	-39	279	-59	31
472	-232	683	-84	31
-67	-333	988	159	31
-139	-115	791	257	31
-112	-23	366	274	31
104	42	461	430	31
382	125	387	556	31
162	149	-245	421	31
287	247	-642	43	31
354	87	-1252	-281	31
-66	-238	-1415	-649	31
-72	-144	-643	-1044	31
51	109	-726	-930	31
-76	101	-608	-309	31
-411	66	133	612	31
-177	116	330	267	31
239	68	515	-602	31
-37	-57	412	-62	31
-130	-207	167	-24	31
-90	-195	-51	355	31
199	-47	-103	608	31
280	25	256	-39	31
-256	209	322	215	31
-352	265	192	91	31
-76	170	12	-358	31
102	200	91	-197	31
-54	-214	112	368	31
-117	-649	-180	731	31
103	-270	-330	861	31
139	244	-579	-102	31
45	237	-402	-677	31
-45	86	4	17	31
29	-116	51	156	31
74	-333	295	178	31
81	-220	420	-329	31
141	-119	187	-304	31
116	-135	34	-354	31
-69	-235	87	-349	31
-185	-208	199	-113	31
-28	59	324	-350	31
123	44	393	-204	31
-96	-46	232	-357	31
-411	-50	74	-76	31
-197	-59	-215	444	31
123	2	-184	1029	31
179	2	412	598	31
49	11	825	-248	31
-21	144	889	22	31
120	169	280	-172	31
220	128	-430	-107	31
10	324	-608	-65	31
-139	277	-671	-221	31
91	-164	-532	43	31
122	-387	-550	22	31
94	-186	-758	-196	31
9	128	-418	-322	31
-25	184	82	87	31
-69	205	231	546	31
-133	285	230	253	31
-22	347	37	-1	31
-106	515	-271	379	31
-146	551	-518	7	31
-160	357	-111	-347	31
-63	16	293	50	31
26	-453	191	10	31
-53	-709	299	51	31
36	-551	254	49	31
200	-220	274	-11	31
197	-16	308	82	31
130	-48	155	-73	31
164	98	42	-229	31
20	304	-139	-242	31
-208	-26	-189	-184	31
-262	-124	159	-191	31
-244	358	788	117	31
-325	218	1117	395	31
-299	-301	752	89	31
-123	-499	12	82	31
-52	-576	-455	606	31
149	-233	-1268	502	31
265	126	-1468	-48	31
106	192	-232	-74	31
30	464	110	-495	31
36	664	-124	-1124	31
142	513	-3	-598	31
332	330	-343	632	31
358	300	-668	904	31
498	422	-356	-293	31
253	688	357	-196	31
-272	511	553	153	31
-117	-214	239	-299	31
-17	-560	309	-28	31
-148	-757	560	-81	31
-94	-1038	714	320	31
27	-664	543	604	31
-66	86	82	466	31
-109	357	-287	238	31
42	17	-622	-297	31
23	-756	-542	-459	31
59	-1223	-160	-266	31
57	-617	179	-99	31
134	-220	402	-217	31
66	-398	337	-164	31
-259	-47	102	-181	31
-99	267	-186	88	31
67	178	-366	547	31
39	54	-153	268	31
4	267	147	-261	31
-132	565	408	-196	31
5	440	467	124	31
64	327	61	22	31
-72	446	112	-53	31
-71	565	-238	-126	31
-13	369	-894	-16	31
94	-18	-578	166	31
76	-186	-561	-365	31
84	-297	-388	-539	31
158	-500	166	2	31
-127	-536	205	524	31
-230	-298	210	271	31
19	42	219	-108	31
9	140	210	365	31
-31	118	141	129	31
85	186	154	-119	31
179	167	313	95	31
-11	249	472	7	31
-81	367	608	56	31
-22	420	487	-60	31
-137	280	215	-17	31
-78	-12	111	-16	31
-103	-229	516	-211	31
-61	-606	755	-176	31
16	-679	102	-20	31
-20	-211	-872	157	31
108	195	-1376	202	31
79	285	-1299	-77	31
-59	327	-955	-119	31
104	644	-190	316	31
290	654	225	232	31
15	428	-91	79	31
-341	406	-300	112	31
-92	132	-251	-2	31
-47	-154	-254	-47	31
-188	-334	-333	-185	31
14	-505	134	-68	31
-13	-287	204	50	31
105	307	-147	-136	31
51	824	177	-305	31
27	1367	360	-194	31
140	1549	525	104	31
69	707	550	84	31
154	-592	312	9	31
163	-1675	327	-8	31
54	-1875	254	-86	31
1	-1330	233	-55	31
103	-541	230	-7	31
-84	43	224	53	31
-221	-48	254	57	31
-46	-328	164	86	31
-59	-421	124	191	31
-39	-273	65	94	31
-46	-307	-136	-124	31
-132	-366	-243	162	31
-14	-154	-224	353	31
54	-79	-205	-52	31
40	131	-80	-288	31
51	218	61	-510	31
121	177	54	-650	31
112	220	83	-568	31
-51	195	185	119	31
-28	273	52	1168	31
100	265	-166	920	31
93	256	-185	132	31
-122	178	-194	119	31
-213	72	-206	-42	31
-125	126	-143	-382	31
-94	107	-50	-427	31
-39	127	162	-362	31
27	223	154	221	31
6	483	-89	532	31
17	771	-166	207	31
29	606	-232	-22	31
-138	123	-277	-1	31
56	-334	-169	-29	31
217	-629	-124	-112	31
36	-666	17	-106	31
147	-467	367	-59	31
62	-131	486	94	31
-34	79	451	37	31
27	115	380	52	31
-13	192	91	-40	31
-1	187	-255	-231	31
-100	31	-194	-91	31
-102	-99	338	43	31
-76	-142	815	-303	31
-94	-89	1022	-487	31
-146	-59	537	-134	31
-151	-152	-573	154	31
111	-172	-1223	326	31
224	-155	-1182	142	31
-16	-75	-872	227	31
89	131	-796	215	31
338	266	-838	81	31
-252	417	-524	88	31
-468	575	-104	-173	31
-12	479	344	-186	31
35	183	869	-104	31
79	-58	866	-38	31
2	-288	231	-26	31
-23	-218	-172	427	31
126	76	-439	854	31
87	73	-333	300	31
112	-22	152	-530	31
124	-206	357	-562	31
84	-184	405	-339	31
59	298	233	-262	31
46	549	146	16	31
36	183	78	-6	31
6	-421	130	26	31
27	-622	194	80	31
52	-606	141	32	31
47	-505	210	8	31
50	-212	195	-54	31
20	-123	174	-1	31
-99	10	24	-4	31
-124	157	-92	65	31
38	162	-126	98	31
39	190	-8	97	31
-81	177	254	104	31
-114	265	385	112	31
22	277	362	79	31
205	194	56	-131	31
4	232	-327	-315	31
-98	408	-640	-422	31
77	573	-832	-292	31
-94	604	-617	167	31
-79	875	-30	357	31
16	588	254	310	31
-89	-581	477	424	31
80	-1024	641	335	31
-59	-1157	235	370	31
-154	-1118	-156	260	31
-3	-340	-251	-112	31
-115	1	-69	-172	31
-129	-69	13	-208	31
-121	-222	32	-181	31
52	-390	103	-117	31
205	-278	104	-119	31
53	59	94	-173	31
192	117	32	-117	31
273	-181	51	-126	31
61	1	232	-221	31
52	17	855	-310	31
56	-204	934	-248	31
1	134	291	94	31
2	329	-553	340	31
-4	381	-1671	354	31
-132	433	-1266	305	31
-176	310	-83	335	31
-113	187	-112	187	31
-177	15	-179	204	31
-182	-15	151	261	31
-66	86	110	-308	31
84	158	-115	-808	31
118	145	-59	-277	31
127	192	-289	339	31
72	443	-411	122	31
1	545	46	-325	31
56	174	291	-401	31
69	-325	116	-168	31
71	-528	-155	166	31
-12	-532	-96	636	31
-59	-280	92	196	31
-34	-57	268	-240	31
-56	-36	209	86	31
-64	76	26	156	31
-83	111	110	44	31
-62	159	246	-153	31
7	220	320	-70	31
66	302	371	-52	31
97	270	323	-56	31
107	-129	252	-51	31
95	-357	102	-140	31
77	-328	-134	-124	31
-85	-197	31	-147	31
-194	-134	290	-107	31
105	-115	510	175	31
176	-76	648	407	31
-22	-318	-24	180	31
3	-190	-847	86	31
-62	162	-878	7	31
7	185	-688	-79	31
69	220	-358	45	31
-145	182	82	147	31
-124	170	99	364	31
-47	259	391	432	31
-52	383	367	138	31
-21	443	-122	-295	31
28	241	-200	-211	31
122	40	-397	-174	31
107	67	-460	-411	31
34	56	-204	-21	31
52	-25	161	93	31
13	-113	269	-24	31
-51	-625	204	42	31
22	-885	290	-63	31
24	-434	172	-51	31
-19	-137	94	-39	31
-94	-27	258	-34	31
-149	13	403	-60	31
-87	14	289	-42	31
-71	42	-6	-10	31
-1	31	-431	-4	31
64	106	-815	31	31
115	101	-685	6	31
41	89	-228	8	31
-58	140	87	65	31
42	166	260	94	31
16	343	377	42	31
44	750	294	-22	31
198	1013	97	-107	31
71	693	-26	-124	31
-24	-5	-41	-36	31
75	-598	119	72	31
-135	-535	302	47	31
-124	137	175	7	31
112	-76	-17	11	31
-194	-818	11	-22	31
-328	-724	30	54	31
-91	-676	-20	161	31
-122	-498	-65	140	31
-24	-42	-19	-152	31
198	-169	259	-310	31
200	-151	652	-182	31
176	267	750	-122	31
119	341	500	-39	31
147	267	-167	64	31
81	435	-635	261	31
21	406	-373	320	31
8	-99	-474	197	31
-85	-418	-698	277	31
-50	-398	-438	297	31
-92	-387	-375	237	31
-46	-177	-335	157	31
22	165	-101	-154	31
59	305	-26	-387	31
49	311	0	-211	31
-79	218	13	-19	31
4	6	-36	-84	31
119	158	-66	-164	31
138	259	30	-202	31
51	-14	155	22	31
-8	0	170	252	31
86	103	177	-33	31
76	56	220	-186	31
-81	-192	287	-131	31
-73	-245	258	24	31
-71	84	194	264	31
-89	205	142	-34	31
-9	135	156	-111	31
-27	-39	162	156	31
57	-200	104	253	31
84	-259	197	157	31
11	-53	194	47	31
-71	374	-158	94	31
-87	652	-390	82	31
56	805	-369	124	31
116	541	-212	14	31
103	-234	-46	-152	31
60	-926	-84	-249	31
56	-877	-86	-231	31
13	-347	-26	-39	31
-109	-101	96	36	31
-132	-49	264	-23	31
-116	36	297	32	31
-206	86	127	52	31
-231	59	22	-24	31
-112	83	-57	-54	31
-76	184	-199	-122	31
-74	259	32	-64	31
96	303	347	-38	31
168	214	389	-93	31
52	165	119	-28	31
86	-20	-221	99	31
94	-391	-392	100	31
87	-375	173	-79	31
96	-227	1303	-47	31
-1	-114	1393	62	31
22	1	332	229	31
67	-23	-1007	325	31
-101	16	-1924	56	31
-127	52	-1993	-79	31
64	110	-935	-4	31
-45	131	128	86	31
-49	81	3	116	31
7	94	134	69	31
-6	49	170	-5	31
78	33	113	-87	31
36	74	229	39	31
78	202	-123	-46	31
112	363	-67	-152	31
135	281	81	-126	31
-19	97	339	-255	31
-84	-150	567	-151	31
98	-433	471	-124	31
68	-332	244	14	31
-42	-54	24	41	31
-134	-61	-51	-148	31
20	-272	44	-20	31
29	-240	556	54	31
-148	3	848	72	31
-114	6	598	51	31
-127	-144	51	34	31
-37	-333	-438	57	31
10	-227	-828	207	31
-2	94	-863	355	31
57	344	-271	216	31
62	778	11	33	31
-46	1053	132	-79	31
-78	839	152	34	31
67	126	-317	-14	31
12	-496	-676	-262	31
-47	-338	-391	73	31
-60	20	147	364	31
-84	-89	199	-211	31
-86	-260	297	-587	31
-56	-217	496	-217	31
-27	-422	367	-48	31
-52	-578	199	139	31
-32	-268	143	164	31
0	77	176	-1	31
67	127	155	247	31
35	96	27	262	31
126	4	-47	13	31
139	-184	60	-92	31
46	-139	127	-32	31
129	-17	-31	2	31
101	92	-116	122	31
53	293	-119	84	31
-20	194	-165	-46	31
1	-164	-12	10	31
-14	-157	205	61	31
-91	75	143	125	31
-67	124	34	3	31
-99	79	7	-111	31
-111	-26	-403	-202	31
-126	-32	-577	-136	31
60	41	-91	54	31
135	61	267	-117	31
31	80	259	-186	31
210	129	97	-54	31
190	308	66	-160	31
94	484	-8	-192	31
69	430	-245	-6	31
-64	250	-221	228	31
-11	-38	37	184	31
-114	-481	72	122	31
-101	-630	57	91	31
126	-538	143	-35	31
12	-359	207	51	31
-186	-132	361	-5	31
-224	-87	569	-6	31
-51	132	638	14	31
119	421	87	26	31
39	609	-475	85	31
83	373	-668	101	31
146	-125	-1057	160	31
94	-440	-706	69	31
161	-589	-147	-5	31
96	-120	-200	-104	31
42	137	-6	-274	31
-47	-81	177	-250	31
-91	-170	469	-132	31
-37	-101	447	65	31
-146	234	270	368	31
-110	404	339	186	31
-36	413	77	240	31
-45	403	-319	453	31
-26	270	-663	-39	31
-48	-155	-589	-644	31
-22	-530	-555	-900	31
-17	-524	-276	-364	31
-11	-332	410	105	31
59	-31	577	302	31
24	-109	621	496	31
36	-162	386	228	31
100	29	186	90	31
54	70	528	24	31
75	92	883	-50	31
52	26	880	-71	31
-64	55	107	-177	31
-30	114	-590	-210	31
-94	121	-948	-254	31
-176	177	-862	89	31
-129	160	-272	620	31
-71	126	-128	519	31
-41	94	16	202	31
-19	119	535	145	31
89	59	942	-11	31
56	-73	651	27	31
-48	230	-185	27	31
81	517	-561	-72	31
257	301	-731	37	31
112	229	-1066	-276	31
29	-27	-674	-426	31
7	-256	-56	-289	31
-123	7	-167	-317	31
-125	-203	-362	378	31
-188	-382	-345	820	31
-127	-166	-163	57	31
-59	127	161	-564	31
-78	519	389	-380	31
-27	606	637	-172	31
92	650	814	-173	31
171	14	754	97	31
75	-1111	532	101	31
76	-1336	313	2	31
101	-1034	73	-41	31
125	-420	-29	76	31
50	-21	42	264	31
-6	124	-54	-101	31
139	607	-278	-221	31
0	737	-353	-152	31
-165	544	-36	-327	31
-173	298	-115	-167	31
-141	-72	-751	189	31
-4	-353	-367	295	31
65	-320	914	197	31
95	-332	1136	196	31
41	-585	483	242	31
-27	-604	378	-122	31
-62	-383	-256	-6	31
-121	-102	-1167	593	31
-72	146	-688	258	31
-31	456	-47	12	31
78	769	-340	-312	31
210	613	-264	-509	31
61	72	593	220	31
-82	-58	484	208	31
-94	179	-510	-440	31
-111	325	-1716	-823	31
-74	156	-2274	-448	31
48	-87	-331	83	31
143	-165	1816	339	31
39	-393	2048	797	31
-26	-365	1790	835	31
20	-183	1466	255	31
46	-62	1110	-81	31
85	94	452	-187	31
87	125	-1172	-319	31
88	192	-2355	414	31
118	170	-1272	1435	31
97	227	310	1102	31
30	307	862	-839	31
26	245	1086	-1138	31
-14	277	628	-324	31
-171	163	-710	-603	31
-355	-132	-812	-478	31
-264	-439	699	-849	31
-41	-395	1043	-377	31
-1	6	355	303	31
77	103	-228	271	31
12	238	-1366	379	31
-14	400	-1523	-251	31
164	31	-1000	-427	31
116	-358	-503	-66	31
54	-657	217	845	31
104	-546	-1094	998	31
34	309	-1321	82	31
6	634	579	-369	31
57	102	1657	-633	31
113	-213	2384	-665	31
134	34	2277	-876	31
9	275	290	-666	31
22	-21	-1448	530	31
-24	-308	-765	548	31
-262	-525	268	-405	31
-322	-317	324	420	31
-344	307	114	1809	31
-309	293	-1885	1167	31
-302	364	-2985	-252	31
-35	609	-860	-784	31
205	373	-2	-729	31
220	-64	595	-36	31
372	-222	1433	787	31
290	-155	794	431	31
300	-101	761	39	31
229	64	1024	452	31
23	49	778	546	31
18	264	-29	-875	31
-159	549	-1227	-1247	31
-171	335	-1436	-362	31
-81	2	-829	-604	31
-122	-219	-162	-26	31
-39	-182	1120	-73	31
-15	-393	2206	-494	31
-68	-513	2904	8	31
-112	-425	2258	955	31
-112	-739	37	1129	31
9	-677	-1882	12	31
22	-76	-1970	-222	31
-36	982	-714	-60	31
213	1843	-1710	803	31
362	1066	-1950	1497	31
391	-416	-641	1349	31
385	-1338	-688	-290	31
151	-1467	493	-2562	31
224	-644	2005	-2419	31
234	52	2175	-904	31
-48	270	1778	865	31
-199	471	935	344	31
-327	387	-993	-582	31
-513	126	-2378	2775	31
-523	-105	-1913	3264	31
-322	-681	-817	-1734	31
-218	-1213	86	-3178	31
2	-1069	997	-2838	31
170	-410	2406	-3042	31
257	879	2176	-31	31
350	1512	-667	2509	31
192	630	-1160	2639	31
235	36	-343	3199	31
147	248	-1250	2883	31
-122	332	-774	1184	31
-136	148	-1439	402	31
-124	370	-2310	-771	31
42	571	-1828	-1487	31
56	221	-470	-528	31
-194	-250	1904	-142	31
43	-613	2269	-1196	31
316	-383	3126	-1192	31
126	32	2385	-397	31
-77	304	-290	-260	31
-182	285	-1706	646	31
186	-73	-2100	277	31
310	-152	-826	-1051	31
-17	-25	-219	-2010	31
-31	248	619	-2552	31
-15	203	1313	-2304	31
-206	21	1226	-730	31
-456	38	2430	1965	31
-257	-220	2456	4000	31
27	-249	2335	4000	31
186	36	541	3133	31
365	545	-3551	-565	31
366	709	-2908	-2609	31
112	159	-1215	-949	31
-164	-259	-1433	-998	31
-56	-486	-1057	-1799	31
34	-499	210	-1980	31
-148	-215	1388	-1034	31
-437	-229	-970	336	31
-543	-441	-1335	1009	31
-198	-66	457	1111	31
-94	128	683	859	31
-69	-48	1640	1150	31
-2	19	1211	-867	31
-165	-127	465	-487	31
-2	-94	-124	1093	31
-1	4	-1895	912	31
-179	-47	-2080	763	31
-535	140	-563	269	31
-821	334	-824	256	31
-379	512	-1753	-755	31
6	704	-217	-205	31
172	881	1235	56	31
102	634	2428	-1445	31
-167	-134	2173	-1241	31
-219	-988	811	-1693	31
69	-1339	712	-1690	31
349	-819	78	-166	31
227	-196	-241	748	31
252	-59	-759	1229	31
-43	-46	-91	-245	31
-553	162	819	-1332	31
-601	298	-105	1257	31
-501	606	629	2579	31
-5	799	1000	1159	31
410	117	831	-289	31
429	-358	702	-793	31
625	-292	-551	-114	31
408	-378	-1014	797	31
24	-198	-1069	632	31
97	-4	-219	-206	31
12	-54	-1030	17	31
4	82	-2668	-2	31
-41	59	-2058	-2	31
-19	-90	-12	-697	31
183	-64	1562	-2018	31
-82	-72	2235	-2878	31
-272	-152	2763	-1858	31
-242	-162	587	660	31
-309	-101	-1000	1866	31
-96	-31	4	2779	31
-14	34	-788	2198	31
-234	175	-2868	498	31
-41	390	-1691	-743	31
189	393	-877	-1168	31
187	340	-716	-530	31
207	193	-22	101	31
235	-107	849	675	31
266	-210	2656	746	31
77	-148	2474	112	31
-79	-14	2594	-74	31
8	42	1089	150	31
38	30	-1025	-257	31
5	-46	-1917	-763	31
-14	-104	-1082	-1111	31
-81	32	-727	-414	31
-26	132	-1644	652	31
125	46	1554	54	31
102	-140	2547	-18	31
193	-240	701	553	31
325	-113	-975	-637	31
359	37	-1314	-527	31
220	73	-450	545	31
13	152	-812	557	31
203	160	-1411	693	31
151	79	-2005	-92	31
41	81	-348	-537	31
117	140	1449	25	31
117	124	1879	576	31
237	-54	1207	262	31
266	-151	969	-328	31
-19	-99	-173	141	31
-330	-22	-2072	785	31
-164	44	-581	133	31
-135	39	883	-548	31
-184	-2	976	-772	31
35	-46	754	-836	31
179	-7	1124	91	31
230	4	622	209	31
224	-49	-493	-163	31
229	-13	-9	-675	31
202	140	-1469	-457	31
96	247	-2634	-26	31
66	176	-1014	808	31
177	31	1007	1597	31
-49	-277	1675	-650	31
-79	-443	758	-1505	31
44	-141	-12	-317	31
-332	99	640	925	31
-326	137	1195	853	31
-189	184	-701	-673	31
-215	-137	-1849	-808	31
-2	-393	-446	-594	31
177	-32	440	1053	31
322	175	121	1863	31
292	240	-128	541	31
192	271	312	32	31
248	41	736	-528	31
192	-131	465	-420	31
131	-309	-391	332	31
199	-177	-1323	201	31
153	93	-1406	635	31
-123	187	-648	377	31
-227	169	448	-497	31
-135	-44	438	-312	31
-209	-251	420	-1089	31
-169	-374	1148	-477	31
-79	-54	638	707	31
-176	259	-722	632	31
-172	220	-875	-232	31
-1	160	775	-352	31
111	33	782	-13	31
202	-233	-337	-24	31
355	-413	-626	311	31
393	-134	208	-913	31
185	-23	739	-1222	31
-168	16	-404	-106	31
-248	144	-64	1865	31
20	-77	-22	2311	31
355	108	16	-261	31
292	310	621	-1018	31
-82	282	314	-341	31
-263	423	563	-207	31
-404	56	-179	274	31
-360	-302	-1152	-399	31
-265	-129	-1335	-1549	31
-137	192	-357	-1430	31
117	229	617	214	31
165	14	373	1447	31
239	121	473	711	31
189	237	233	160	31
152	150	-240	293	31
267	1	-601	-96	31
57	-451	363	-796	31
-127	-588	1397	-903	31
41	-96	770	-699	31
97	19	159	45	31
0	-82	-484	761	31
-114	58	-437	1231	31
-248	164	574	1274	31
-213	152	403	630	31
-105	54	-1257	959	31
-16	-58	-1292	359	31
-4	-170	-16	-1281	31
39	-31	778	-948	31
102	127	388	-538	31
-3	224	-1117	-101	31
-59	418	-1947	-439	31
-8	268	-1729	-1013	31
-74	71	-605	-130	31
-111	-217	684	-152	31
40	-473	1641	-147	31
-18	-250	1845	-39	31
-230	-89	1411	-172	31
-232	19	528	76	31
-174	-4	458	360	31
-150	-54	350	14	31
-130	41	-385	-225	31
-41	187	92	617	31
132	435	-265	2224	31
253	336	-910	1058	31
253	73	-521	-1913	31
131	-328	-187	536	31
132	-736	-97	1254	31
146	-548	432	-1296	31
14	-181	837	285	31
-69	30	-270	846	31
-184	192	-636	72	31
-93	161	-64	-170	31
-13	158	533	-77	31
-57	397	330	-359	31
15	381	2	-308	31
-111	256	-753	421	31
-167	-4	-1283	-272	31
-99	-566	-296	-297	31
-26	-370	-122	56	31
142	215	488	761	31
137	245	239	459	31
54	-6	-499	-272	31
74	-185	-462	-713	31
186	-192	896	-1059	31
334	-49	1574	-329	31
181	276	172	-314	31
-1	360	-400	-42	31
132	66	-786	-780	31
-71	-209	104	-1043	31
-211	-363	460	129	31
-59	-205	232	846	31
-81	14	193	816	31
14	-24	-139	68	31
-56	-49	749	302	31
-179	-79	670	472	31
-111	-39	-643	-12	31
-71	172	-1974	-557	31
-6	418	-1704	-469	31
49	537	-212	-153	31
145	323	338	951	31
248	111	979	1495	31
166	37	1443	232	31
-156	-14	980	-358	31
-186	207	544	-795	31
7	140	259	-713	31
-144	-509	-215	-69	31
-220	-835	-132	38	31
-61	-556	284	611	31
-72	-205	-86	837	31
-134	-6	-544	573	31
77	82	-1052	1053	31
214	169	-350	387	31
149	350	980	-733	31
67	379	1099	-545	31
62	252	-235	-600	31
114	-140	-2204	-240	31
70	-527	-1305	-452	31
35	-363	548	-1108	31
39	-82	1089	-780	31
10	74	1480	-587	31
-42	-36	508	-502	31
-84	-172	-1307	254	31
-189	-41	-1310	936	31
-174	71	34	759	31
-62	129	496	444	31
-40	180	251	-43	31
-67	445	41	-183	31
-89	690	-237	15	31
-91	590	-437	50	31
-202	26	-199	265	31
-154	-635	121	265	31
56	-782	180	116	31
151	-420	388	156	31
169	98	414	31	31
124	281	-433	56	31
61	345	-869	-53	31
30	246	-338	249	31
14	-98	477	341	31
-24	-356	706	-54	31
-39	-343	207	-29	31
11	59	211	-360	31
81	252	219	-443	31
10	283	772	-705	31
-161	282	1898	-895	31
-112	7	1441	-710	31
55	-328	763	67	31
108	-480	658	991	31
106	-268	-1220	2262	31
55	109	-3011	2391	31
-23	591	-2954	-328	31
2	711	-1499	-1780	31
47	358	-185	-1247	31
54	87	-44	-500	31
71	-197	375	-156	31
49	-533	596	528	31
17	-556	592	808	31
-26	-182	438	-192	31
-37	-15	211	-396	31
-38	-12	169	-289	31
-91	55	211	-503	31
-74	-56	768	-1091	31
31	-86	500	-1620	31
10	-69	-1197	-759	31
86	7	-1186	884	31
229	94	597	2038	31
27	37	1511	2486	31
-164	27	1130	507	31
9	102	276	-1105	31
144	269	347	32	31
-57	297	-185	261	31
-87	187	-421	1255	31
-77	192	-475	402	31
-76	139	-546	-1048	31
-32	36	-194	12	31
-175	77	-633	-196	31
-216	81	-254	91	31
-161	-196	23	-332	31
-67	-498	304	-409	31
7	-277	289	-110	31
148	194	-44	-542	31
234	204	56	-130	31
231	-1	74	-215	31
247	-69	174	-49	31
192	-185	76	-129	31
89	-181	493	-100	31
-35	-106	758	18	31
-34	-76	93	3	31
11	-17	-831	157	31
24	-37	-1177	196	31
-37	2	-825	281	31
-101	42	-691	45	31
-144	37	-212	-262	31
-190	35	989	-537	31
-91	6	827	-478	31
-24	59	587	-180	31
-47	349	989	379	31
-74	1003	559	382	31
-6	1517	-133	122	31
51	1331	-91	595	31
61	70	806	167	31
131	-1941	222	-278	31
91	-2139	-546	325	31
29	-656	-978	260	31
-72	-365	-2734	-63	31
23	-245	-1985	36	31
107	127	420	206	31
-99	-37	1116	217	31
-29	58	992	147	31
-89	12	346	-11	31
-150	-59	212	-330	31
-37	-67	278	-149	31
-124	-66	195	52	31
-78	159	111	-103	31
25	264	-165	-36	31
130	413	-18	-214	31
99	394	89	-409	31
26	149	-137	-134	31
62	-22	-181	194	31
23	-254	108	252	31
2	-280	317	-92	31
4	-27	525	-213	31
-22	91	441	-37	31
-79	89	157	-124	31
-91	105	-31	-244	31
-72	84	-102	-347	31
-102	101	136	-402	31
-69	94	85	-121	31
-17	72	203	356	31
49	24	472	896	31
108	-99	-296	926	31
15	-110	-1552	618	31
-26	-14	-556	313	31
119	55	1296	-660	31
174	4	901	-1124	31
141	22	-424	125	31
62	87	-1238	954	31
-22	66	-621	531	31
39	86	-11	178	31
9	24	203	-296	31
-32	27	-243	-705	31
-87	122	-405	-912	31
-171	137	144	-227	31
-124	212	82	410	31
-126	368	430	298	31
-32	394	528	-104	31
27	148	731	-462	31
-17	-187	535	110	31
62	-516	-342	161	31
134	-587	-1074	58	31
126	-302	-1039	-119	31
115	-114	-553	-490	31
5	-56	-990	-556	31
-29	-17	-428	-334	31
90	4	1880	318	31
13	5	2690	514	31
-51	14	1145	611	31
-64	189	-34	833	31
-96	410	-568	256	31
-84	407	-332	100	31
-89	194	220	46	31
-52	-224	178	-718	31
-41	-648	469	36	31
5	-358	841	537	31
9	127	610	570	31
-6	638	-1341	378	31
105	1510	-2643	-131	31
144	1645	-1660	33	31
117	592	-385	-184	31
82	-893	135	-318	31
-9	-1647	-257	-560	31
-47	-1463	-47	-334	31
-64	-565	83	-121	31
-141	157	244	-189	31
-161	-393	698	-230	31
-72	-425	532	-236	31
-13	-11	511	-22	31
-56	-333	217	-233	31
-12	-235	37	-242	31
39	-176	-23	-40	31
50	-110	-42	205	31
169	77	140	329	31
148	27	167	336	31
127	160	109	297	31
181	89	26	98	31
126	144	63	45	31
142	382	41	-28	31
144	729	144	-106	31
19	752	154	-53	31
-117	240	2	-22	31
-174	-14	33	81	31
-97	-433	-61	197	31
-74	-628	-243	18	31
-159	-210	-47	-127	31
-163	363	292	-31	31
-182	877	328	-37	31
-204	512	-17	53	31
-182	-184	-656	44	31
-137	-448	-936	-182	31
57	-624	-292	-68	31
189	-452	441	197	31
300	-132	500	230	31
404	-23	87	-27	31
149	42	-821	-245	31
71	104	-822	-99	31
187	168	179	7	31
43	161	1097	-14	31
-95	207	1438	175	31
-78	252	527	395	31
62	411	-684	314	31
-9	496	-779	139	31
-118	-42	56	44	31
-18	-323	520	-24	31
-64	-148	169	-236	31
41	-328	-315	-269	31
113	-332	-41	45	31
-76	-92	144	-27	31
-82	-53	-294	-126	31
47	26	-280	-302	31
47	46	16	-495	31
11	36	617	-3	31
8	66	974	277	31
-66	107	781	-6	31
-44	282	156	-79	31
13	317	-507	-215	31
-60	144	-179	-227	31
-220	-63	-251	18	31
-87	-276	-1209	151	31
62	-301	-1461	424	31
-14	-68	-170	551	31
44	38	1018	570	31
22	4	1124	81	31
86	87	435	-632	31
59	180	-425	-474	31
-15	162	-967	-225	31
196	21	-1316	-385	31
210	-101	-944	-16	31
18	-164	-457	22	31
-91	-86	315	-115	31
-89	124	715	610	31
-106	341	267	415	31
-97	543	280	-101	31
-27	348	600	186	31
-60	103	437	485	31
-109	134	-290	11	31
-27	-180	-989	-456	31
74	-382	-731	-151	31
57	-219	447	-23	31
70	-296	879	-110	31
106	-265	763	-16	31
34	31	640	211	31
-27	242	412	76	31
-44	-157	231	169	31
-57	-764	70	152	31
-62	-594	111	92	31
-33	-303	-64	190	31
-131	-127	-171	14	31
-109	55	-195	-56	31
19	89	-149	-374	31
-111	154	-32	-397	31
-86	141	-12	-123	31
21	143	26	-46	31
29	128	38	-37	31
100	94	345	195	31
54	82	1001	374	31
-43	74	954	181	31
122	96	-529	290	31
192	89	-1360	88	31
44	92	-852	-540	31
86	87	-639	-365	31
68	266	-463	109	31
58	579	-169	117	31
68	649	154	-231	31
-74	355	165	-361	31
-153	-324	-79	-379	31
-137	-787	28	-96	31
-15	-432	-53	437	31
28	-75	-39	636	31
4	-41	94	345	31
-106	270	345	-163	31
-186	631	372	-28	31
119	495	-16	-249	31
106	-162	-187	-305	31
-87	-317	66	99	31
8	-187	343	367	31
79	-511	62	402	31
164	-624	292	64	31
71	-500	582	-13	31
1	-201	503	-273	31
22	417	-32	-88	31
16	1049	-964	118	31
-108	1278	-1111	-109	31
-128	1075	-834	106	31
-23	222	-76	-184	31
-127	-1346	333	-736	31
86	-1771	618	-272	31
197	-573	778	229	31
66	238	-49	434	31
250	546	-75	716	31
85	647	-108	689	31
-246	339	-285	517	31
-4	272	421	273	31
325	354	405	-219	31
2	260	-141	-623	31
-94	154	-937	-546	31
174	-371	-606	-368	31
-83	-1493	374	-274	31
-196	-1638	639	-115	31
-33	-677	587	69	31
53	-274	-44	120	31
-36	-207	227	52	31
-135	-4	207	33	31
-82	156	87	-12	31
-92	403	176	-61	31
48	479	-41	-152	31
63	270	114	-184	31
99	33	278	-126	31
199	-78	781	-44	31
-45	-9	854	197	31
59	152	465	232	31
172	182	192	-88	31
-86	400	-343	11	31
-275	802	-1619	515	31
-115	641	-1939	493	31
-72	230	-1642	-101	31
-156	-109	-1374	-419	31
34	-412	-270	-251	31
-46	-45	398	-63	31
31	784	640	156	31
192	983	328	18	31
22	852	435	-62	31
-31	671	725	11	31
70	-387	777	-91	31
-1	-899	795	15	31
-23	-592	275	-83	31
73	-1008	134	-84	31
125	-1169	7	-112	31
208	-744	147	-117	31
-53	-488	245	184	31
-135	-134	236	264	31
-136	87	433	96	31
-187	-218	194	-52	31
27	-139	-347	-113	31
-213	359	-834	-192	31
-182	527	-1426	98	31
186	450	-1379	454	31
-13	166	-405	418	31
-265	19	223	320	31
104	-19	550	67	31
202	40	362	6	31
198	167	196	61	31
380	-56	637	-177	31
-109	-124	590	-186	31
-131	37	380	-108	31
189	511	-4	-21	31
-24	929	-94	28	31
-62	508	295	64	31
-36	66	-639	69	31
-289	-337	-747	-147	31
-172	-660	-12	-538	31
46	142	0	-552	31
55	1541	525	-277	31
109	1933	918	-558	31
66	810	1075	-67	31
53	-980	1271	593	31
-46	-1950	1063	393	31
-66	-1776	211	245	31
-163	-1098	-442	156	31
24	-99	-1100	101	31
313	215	-1603	-154	31
14	115	-1403	-135	31
89	125	-1433	617	31
4	-323	-1073	839	31
-36	260	-534	109	31
80	1396	-234	-243	31
-139	1372	134	-271	31
-3	661	252	109	31
-4	-590	515	234	31
-94	-1002	864	-21	31
-62	-270	755	42	31
121	213	458	-183	31
220	544	337	-82	31
199	-312	186	-184	31
208	-1485	262	-517	31
81	-1456	101	-125	31
-108	-1246	-135	277	31
-313	-591	410	149	31
-59	639	545	234	31
117	1638	47	390	31
57	1405	225	-344	31
-215	364	545	-831	31
-422	-576	32	-595	31
11	-977	-395	-182	31
171	155	-529	330	31
5	1818	-606	228	31
-77	2640	-388	-104	31
42	1688	-54	-169	31
110	-577	83	-86	31
61	-983	147	99	31
79	-414	375	36	31
26	-1241	101	206	31
-77	-1833	-651	540	31
-37	-1946	-1064	414	31
101	-1700	-1186	144	31
-715	-515	-796	-148	31
-945	285	-159	-194	31
-212	514	310	67	31
-266	817	878	77	31
191	879	990	109	31
354	882	756	18	31
343	263	568	-148	31
816	-723	262	29	31
774	-629	9	-34	31
352	-807	-88	-151	31
-199	-947	-505	-130	31
-22	73	-897	-176	31
42	1582	-273	-274	31
-64	3402	676	-311	31
136	3155	1308	-377	31
187	1106	1270	-456	31
148	-1070	561	-166	31
-87	-3367	-77	458	31
-27	-3520	-609	487	31
136	-1767	-860	-236	31
116	-187	-824	-164	31
-54	438	-931	399	31
-375	383	-771	655	31
-322	499	-203	918	31
104	825	475	763	31
166	1788	1317	320	31
62	2531	1214	104	31
212	1893	230	-18	31
44	135	-49	-157	31
-45	-1865	-218	15	31
-36	-2401	-768	185	31
-73	-1369	-1452	37	31
57	-466	-1413	-295	31
-37	-79	-124	-578	31
-17	148	260	-660	31
-88	395	343	-722	31
-305	1650	582	-295	31
-217	3162	467	274	31
-193	2394	576	408	31
-38	37	547	26	31
-144	-1809	949	-162	31
-313	-2912	864	56	31
-86	-2537	319	145	31
-144	-1468	130	239	31
89	-819	-127	-52	31
265	-210	-277	-601	31
27	-222	-153	-910	31
-31	-338	-47	-594	31
109	-119	-650	46	31
183	172	-1137	568	31
-236	782	-1203	294	31
-191	1042	-996	271	31
-29	1294	92	842	31
-299	2015	902	418	31
-71	2039	542	452	31
69	1378	98	304	31
-298	355	309	22	31
-288	-1040	659	-64	31
78	-1405	1479	-527	31
-4	-990	1724	-449	31
94	-975	837	-766	31
156	-538	-136	-455	31
27	27	-1356	616	31
24	149	-1856	562	31
-47	241	-1241	-363	31
-29	-305	-543	-527	31
-118	-1163	-99	-324	31
62	-1032	819	14	31
148	-15	1059	447	31
-110	633	77	510	31
-297	443	-90	322	31
0	428	-192	325	31
3	409	-1035	488	31
3	-43	-1618	211	31
452	169	-1603	325	31
46	916	-1085	443	31
-151	1683	-219	84	31
-115	2083	987	-969	31
218	1943	1585	-835	31
392	1051	1262	-263	31
129	-820	1044	-644	31
94	-1888	793	-102	31
-429	-2543	438	49	31
-434	-2288	-97	12	31
-262	-652	-351	17	31
-570	-304	-410	-96	31
40	-395	-931	-8	31
822	-335	-577	173	31
349	-340	77	123	31
-24	-126	560	-415	31
192	83	1136	-590	31
355	566	630	-162	31
22	841	-17	620	31
-235	1225	-137	982	31
232	2596	-61	913	31
-31	4000	460	339	31
-389	4000	1132	-81	31
-47	1600	1083	-9	31
295	-727	-204	-248	31
495	-1138	-1268	-412	31
558	-786	-1426	-388	31
80	-1316	-634	-66	31
-364	-2430	88	237	31
65	-3279	-94	506	31
-136	-3199	-595	535	31
-299	-2505	-1115	-247	31
-245	-1844	-560	-581	31
-417	-1131	638	-337	31
365	-875	1123	-119	31
-42	-641	856	-151	31
-448	-231	127	-558	31
52	350	-977	-647	31
-18	1091	-1566	-289	31
513	1617	-953	150	31
466	1307	-217	1202	31
-330	-239	134	1325	31
-374	-908	547	179	31
365	-697	930	36	31
794	-367	1032	31	31
-82	1147	888	59	31
-736	1766	887	38	31
62	665	645	522	31
374	-475	250	457	31
554	-1371	387	-838	31
897	-982	-6	-513	31
514	614	-615	-581	31
380	1311	-846	-1211	31
-141	1075	-1708	-425	31
-616	129	-1445	9	31
-473	-1403	155	17	31
-370	-1602	703	-18	31
-211	-339	36	-251	31
205	623	-423	337	31
274	1067	-194	552	31
22	1169	-117	214	31
-12	729	29	424	31
219	227	65	257	31
754	-143	42	307	31
727	-133	236	450	31
-290	106	440	120	31
-1079	219	502	-67	31
-1111	499	310	-252	31
-569	955	-22	-301	31
366	1699	-356	-96	31
440	2627	169	712	31
697	2357	540	713	31
1428	449	169	-229	31
1189	-1446	-99	-457	31
412	-2547	-168	-369	31
134	-2282	112	-527	31
292	-1178	541	-808	31
-23	-408	987	-164	31
-931	212	890	332	31
-1150	366	724	229	31
-497	114	608	388	31
-242	-455	427	159	31
9	-803	1233	-179	31
7	-794	1967	-236	31
-79	-647	1367	164	31
-280	-209	-460	335	31
-617	19	-2268	264	31
-176	312	-3974	69	31
-349	374	-4000	-254	31
-565	227	-3210	-284	31
137	365	-1351	86	31
70	408	-252	398	31
56	456	663	41	31
137	575	1679	92	31
-324	619	1916	-502	31
-375	715	2102	-673	31
-276	1186	997	1009	31
588	1308	-533	923	31
893	353	-829	-808	31
16	-937	-1330	-853	31
-61	-1623	-1311	149	31
101	-944	-411	759	31
-295	31	825	307	31
-708	261	990	-122	31
-586	-109	985	163	31
173	-764	1220	-327	31
549	-490	748	-476	31
867	-132	579	-370	31
1314	-266	390	-335	31
896	-156	525	-395	31
442	-169	686	-209	31
-164	-210	453	630	31
-899	-207	-493	635	31
-651	362	-1350	503	31
-515	1294	-931	823	31
-756	1192	-503	238	31
-284	470	-490	-874	31
-111	214	94	-811	31
-899	-255	1054	-354	31
-1571	-747	1378	109	31
-1231	-290	916	527	31
-257	-172	37	491	31
356	-320	-82	565	31
840	-140	-207	-306	31
1229	-148	-440	-1555	31
618	71	-416	-1189	31
20	346	-515	358	31
203	648	-229	1321	31
-94	299	-332	469	31
-386	-997	-315	-436	31
38	-1900	-255	540	31
771	-1853	-262	811	31
420	-1060	159	-142	31
-383	-373	299	-462	31
-302	427	879	-372	31
-128	1070	1598	-102	31
341	234	1165	-305	31
532	-464	-184	-495	31
166	-326	-1443	-528	31
280	-91	-1911	-549	31
568	369	-1774	342	31
413	639	-644	1031	31
-81	920	497	425	31
-247	820	-116	-33	31
59	325	-791	197	31
126	195	-781	609	31
-122	298	-332	585	31
-437	426	1072	-377	31
-114	381	1998	-618	31
21	315	1559	-417	31
-382	282	980	60	31
-793	277	645	475	31
-804	-92	92	-395	31
162	-946	-332	-373	31
-344	-1264	-732	77	31
-484	-823	-1043	82	31
328	-202	-687	162	31
116	359	443	-146	31
493	883	1110	-157	31
134	1205	239	130	31
-1351	1168	-872	703	31
-1848	776	-1226	673	31
-269	101	-589	653	31
1046	-284	69	521	31
705	-116	57	-403	31
852	207	-16	-139	31
530	540	-553	-10	31
-267	958	-719	-177	31
250	715	104	-209	31
819	-686	747	-697	31
821	-1643	541	-845	31
548	-1219	504	-626	31
104	-338	402	-72	31
29	594	143	-146	31
44	2166	474	-390	31
61	2674	856	-31	31
66	988	1025	277	31
-146	-990	1269	-14	31
190	-3658	1577	-95	31
535	-4000	713	221	31
-52	-2378	-295	-51	31
-321	-848	-710	-307	31
-503	-209	-1126	-469	31
-666	44	-957	254	31
-252	202	-504	1311	31
-342	249	-367	706	31
-304	-77	-1102	-7	31
-322	-19	-1149	316	31
-50	152	167	911	31
499	633	-43	1605	31
113	869	-1135	743	31
36	961	-1330	-588	31
281	1042	-1126	-1042	31
443	746	-536	-1420	31
469	421	41	-769	31
-252	-42	663	-1	31
-653	-87	1249	-116	31
-84	-18	1034	-483	31
21	10	569	-97	31
-223	247	571	467	31
-274	378	187	278	31
-453	511	-347	176	31
-568	418	61	-176	31
-399	139	212	-648	31
135	-94	-338	-20	31
362	-200	-265	1041	31
509	-298	-80	716	31
289	-255	55	-314	31
-155	-8	827	-503	31
-39	128	1782	-475	31
-105	197	2010	-340	31
-167	267	847	87	31
-138	400	-734	196	31
68	355	-1420	9	31
493	16	-1682	-183	31
240	-388	-1413	421	31
77	-408	-317	1672	31
-8	-88	188	935	31
-511	-34	-117	-776	31
-319	-96	-42	-778	31
-113	-56	655	-567	31
-458	167	896	-731	31
-203	467	187	-687	31
485	455	-94	-747	31
693	117	654	-143	31
171	-209	1152	532	31
-508	-247	494	764	31
-408	272	-478	840	31
104	986	-1340	-269	31
461	928	-2098	-824	31
53	428	-1777	400	31
-176	79	-511	1687	31
573	-92	493	968	31
554	-691	425	174	31
-493	-1298	127	344	31
-939	-1223	512	-427	31
-1149	-1529	750	-974	31
-915	-832	736	-888	31
980	-70	1078	-277	31
1321	-872	1691	-396	31
232	-1379	1891	-982	31
243	-1368	1084	-1437	31
1117	-702	-144	-715	31
1568	290	-954	1026	31
176	1134	-1321	1049	31
-176	1300	-886	1343	31
347	756	292	1142	31
30	358	154	274	31
168	71	-1321	853	31
-39	527	-1921	319	31
-101	953	-1664	-608	31
80	590	-951	-706	31
330	534	-123	-379	31
249	515	578	466	31
-369	131	1230	108	31
48	-4	1528	-649	31
410	-27	864	-658	31
89	-62	-433	-646	31
-423	-40	-821	-448	31
-690	33	-927	75	31
-663	217	-616	-8	31
-665	23	493	-572	31
-144	-322	2042	547	31
264	-496	2690	1439	31
172	-654	1699	-59	31
107	-515	237	44	31
-107	-146	-2588	635	31
-277	142	-3972	225	31
-118	279	-2085	263	31
4	246	81	-122	31
232	188	629	-619	31
-159	199	380	-1161	31
-451	202	532	-1409	31
-141	193	257	-931	31
-367	92	857	102	31
-282	87	1770	275	31
-275	104	1005	964	31
-301	-46	-36	2382	31
-41	21	-799	1345	31
-165	133	-1233	379	31
70	146	-859	-349	31
96	-32	76	-655	31
-48	-256	883	279	31
143	42	1050	-457	31
72	317	570	-1437	31
337	219	255	-1599	31
361	-24	67	-627	31
-91	-503	-593	749	31
-591	-548	-174	743	31
-1124	-95	383	455	31
-679	-9	117	213	31
-96	129	324	-343	31
66	392	-630	36	31
748	313	-1277	354	31
950	69	337	-147	31
756	-341	517	199	31
783	-619	-322	332	31
292	-398	-413	549	31
-291	22	-1024	1113	31
-282	227	-1294	612	31
-34	262	-1004	-267	31
-375	4	-86	-1026	31
-52	-247	822	-682	31
1063	24	572	164	31
-29	-16	440	-139	31
-2339	-152	600	-48	31
-2202	184	642	664	31
-673	270	1076	489	31
423	92	1435	147	31
1195	21	353	-697	31
1255	157	-819	-902	31
901	77	-1228	-96	31
635	168	-1460	136	31
826	508	-159	89	31
894	3	1004	-628	31
507	-572	1127	-715	31
86	-706	608	76	31
-911	-804	-182	389	31
-1064	-400	-448	44	31
-77	2	-696	-19	31
296	335	-240	256	31
175	403	225	126	31
-469	146	297	14	31
-701	601	780	-412	31
725	373	884	-441	31
1116	-351	-126	-117	31
211	-290	-957	278	31
451	-620	-921	587	31
-56	-1025	-713	202	31
-540	-423	-97	-150	31
-570	398	217	-192	31
-500	426	270	394	31
577	555	438	657	31
597	751	77	142	31
467	478	-61	-99	31
-353	387	96	-78	31
-923	335	-298	224	31
453	397	-789	111	31
995	510	-340	-414	31
525	247	553	-444	31
498	-400	1458	-160	31
345	-684	1862	-421	31
-344	-230	1122	-761	31
-305	-62	-137	262	31
-503	-293	-1957	1265	31
-545	-267	-2328	548	31
-11	-46	-292	-154	31
-345	328	1282	262	31
-237	697	2033	-61	31
-2	541	1681	-190	31
-240	-218	-92	-29	31
-86	-781	-1350	-283	31
-102	-951	-1908	604	31
-445	-1031	-1386	77	31
-660	-461	-528	-1175	31
-421	285	-717	-179	31
-38	674	-170	735	31
663	594	40	682	31
906	-62	-934	226	31
18	-374	-90	-600	31
212	-411	1586	-906	31
614	-365	2632	-1213	31
-281	27	2734	-252	31
-1170	447	2003	1039	31
-1342	708	281	350	31
-139	593	-2866	-287	31
471	226	-3198	273	31
84	-39	-2062	1816	31
206	-235	-2136	2108	31
-342	-290	-934	288	31
139	-188	393	-457	31
555	-222	475	-501	31
-543	2	0	-979	31
-101	501	-127	-906	31
362	735	162	-850	31
87	767	876	-434	31
363	356	2002	-244	31
291	-451	2647	-396	31
-60	-850	2244	-183	31
-210	-686	671	-1	31
-194	-435	-1043	153	31
-261	133	-2067	257	31
-605	500	-1469	891	31
-425	339	138	815	31
626	295	616	129	31
512	-106	152	-149	31
26	-554	-462	-913	31
6	-415	-735	-1193	31
-154	-175	-486	-971	31
473	-238	28	-1009	31
425	-261	247	-387	31
21	-27	-298	187	31
-598	177	-526	1046	31
-698	270	-70	2667	31
1071	134	-154	1678	31
1194	104	105	142	31
242	349	879	567	31
350	358	777	-11	31
39	179	480	-379	31
-144	237	201	-151	31
-179	397	69	-143	31
-284	291	183	-61	31
-96	1	61	-402	31
-93	-240	-207	-212	31
8	-413	-27	-21	31
173	-306	711	-104	31
301	36	821	-78	31
17	-265	267	-149	31
-274	-600	-72	-185	31
1	-220	-486	-211	31
-27	16	-901	-108	31
-96	208	-154	-116	31
-375	310	625	-119	31
-716	81	112	27	31
-299	-182	-299	-62	31
-334	-292	121	-49	31
-190	26	959	-108	31
448	192	964	-389	31
300	207	664	-119	31
-142	255	184	193	31
-419	124	-1059	340	31
6	68	-1132	179	31
3	27	-892	-337	31
-111	253	-902	-317	31
223	480	-516	-354	31
293	197	-282	-492	31
751	-245	-96	-172	31
695	-389	650	853	31
588	-330	1157	802	31
325	-396	161	-537	31
-93	-248	-216	-512	31
-1	-31	-73	-790	31
-119	-310	-580	-642	31
-295	-548	208	508	31
-710	-504	1361	1314	31
-735	-109	794	1574	31
-405	551	-851	703	31
-98	692	-1836	488	31
-46	621	-2031	321	31
-91	406	-1809	-124	31
230	123	-272	-433	31
-44	76	1094	-535	31
166	36	1413	-104	31
648	20	822	-45	31
158	-101	-272	231	31
-23	-33	-893	420	31
-58	36	-1137	-476	31
-387	-59	207	-1198	31
-288	7	1203	-793	31
192	275	1030	-410	31
77	853	757	-47	31
-87	774	46	171	31
183	-4	77	-326	31
81	-177	899	48	31
22	-920	1110	329	31
-44	-2101	172	76	31
-47	-1269	-939	523	31
92	-77	-2172	695	31
-199	99	-1781	629	31
-412	407	147	378	31
-444	468	649	100	31
-542	355	392	21	31
-357	287	318	-203	31
172	230	358	86	31
721	383	699	-23	31
496	396	540	-275	31
178	365	186	138	31
433	165	12	56	31
375	80	-197	-397	31
161	784	-61	-378	31
-44	1145	-6	-202	31
-97	799	79	-366	31
-21	75	249	-250	31
-116	-761	167	-2	31
-24	-934	173	112	31
-79	-887	179	188	31
-71	-188	64	133	31
163	571	-60	215	31
-67	268	7	71	31
-201	-532	57	-71	31
-44	-1555	126	-111	31
99	-1593	172	-307	31
147	-646	69	-179	31
-95	212	64	144	31
-60	377	27	67	31
1	421	-91	-305	31
-271	731	-374	-182	31
-130	-26	-355	478	31
215	-722	-225	516	31
67	-810	-109	-43	31
-214	-966	370	17	31
-168	-225	781	79	31
2	913	638	-32	31
-175	1230	-172	-7	31
-355	754	-847	144	31
-55	-3	-897	413	31
26	-455	-291	-34	31
114	-122	496	-245	31
191	319	728	-11	31
27	334	312	-144	31
87	251	-116	2	31
124	-86	-180	-173	31
186	-273	37	-131	31
196	374	338	222	31
124	1194	-21	177	31
-85	1313	-636	304	31
46	1255	-1065	210	31
403	816	-1492	81	31
41	-440	-1183	-377	31
-104	-1780	175	-573	31
-101	-2239	944	-380	31
-212	-1113	425	-384	31
-166	425	-19	-73	31
-264	838	302	-191	31
-66	260	821	277	31
32	-126	776	891	31
141	-511	784	414	31
264	-753	389	22	31
142	-329	-519	-85	31
224	-129	-871	64	31
231	-4	-949	39	31
148	132	-341	-191	31
52	156	319	-199	31
127	175	208	-227	31
-4	160	-285	-222	31
-300	268	-571	68	31
-117	380	-304	255	31
-12	415	11	-198	31
-4	333	309	-250	31
-93	167	289	220	31
-176	322	-127	585	31
-56	998	-36	302	31
-16	1414	666	-211	31
24	1202	785	186	31
-23	433	543	343	31
69	-784	207	491	31
129	-1512	-350	186	31
51	-1438	-342	-515	31
107	-812	-181	-403	31
37	-619	-7	-314	31
11	-985	119	-264	31
-93	-423	-67	-234	31
-281	610	-413	-104	31
-179	1128	-427	-193	31
-53	1033	126	-225	31
-41	466	430	37	31
-95	-603	643	297	31
-32	-1392	814	272	31
44	-245	636	-8	31
-37	2016	159	129	31
-17	3573	-233	154	31
88	3386	-472	127	31
232	1331	-812	47	31
160	-1024	-641	-44	31
79	-2592	-279	-293	31
92	-3240	-99	-578	31
38	-2104	315	-222	31
66	-46	572	32	31
-20	695	611	7	31
-8	17	547	396	31
83	-1140	-145	791	31
-62	-1868	-688	313	31
-167	-2237	-558	-9	31
-56	-2119	-455	34	31
-39	-1162	-244	-102	31
-79	-594	-126	-31	31
-72	-434	-37	-17	31
-24	-49	362	-78	31
34	353	259	-105	31
14	648	260	-172	31
95	1023	747	-114	31
44	2260	602	156	31
-41	3482	-135	7	31
234	2461	-876	-136	31
209	-16	-815	87	31
-119	-1490	-174	-24	31
-24	-1907	197	-202	31
-16	-1336	488	-164	31
-111	-7	650	211	31
-88	364	543	245	31
-123	413	301	-23	31
-31	662	136	29	31
-56	503	31	-62	31
-169	476	-333	-138	31
-125	373	-885	-74	31
7	313	-615	210	31
101	265	-199	166	31
119	135	106	-181	31
103	190	632	160	31
55	151	295	291	31
-32	140	-255	-91	31
-59	124	-371	-148	31
-62	113	257	-396	31
-114	115	322	-648	31
-123	111	-467	-182	31
-135	107	-857	467	31
-126	24	-626	543	31
-107	14	104	-46	31
-95	11	546	-86	31
-34	38	773	383	31
49	14	566	257	31
32	-56	132	47	31
-17	-59	-262	154	31
59	-87	-561	-64	31
99	-33	-585	-169	31
185	-26	-457	-122	31
163	-82	-71	-336	31
-31	-54	175	-188	31
-47	-28	324	56	31
57	-27	546	160	31
12	-24	438	36	31
-146	17	-407	-35	31
-162	66	-242	29	31
-99	34	660	6	31
-64	-38	544	99	31
4	-50	343	424	31
9	-23	32	119	31
-21	-37	-200	-667	31
62	-62	-304	-565	31
78	-89	23	-112	31
54	-97	340	585	31
37	-97	163	981	31
-4	-107	158	360	31
1	-106	-114	67	31
-5	-96	-667	92	31
9	20	-575	-209	31
-1	322	-79	-66	31
-41	567	-573	113	31
-84	302	-570	-174	31
-127	-122	114	-377	31
-106	-491	235	-478	31
-72	-704	269	-575	31
-13	-314	552	-345	31
52	-87	896	31	31
104	-121	773	25	31
137	-11	595	49	31
128	-24	-25	-16	31
132	-9	-733	-135	31
146	-21	-1005	92	31
132	4	-1062	162	31
70	16	31	-301	31
2	1	683	-542	31
-48	45	-238	-125	31
-106	37	-535	261	31
-86	68	-384	569	31
-20	43	-162	307	31
-51	59	1034	303	31
-105	93	1163	594	31
-7	27	-41	73	31
47	32	-306	22	31
-121	183	-356	125	31
-115	505	-482	164	31
5	591	-83	191	31
-29	368	-159	130	31
21	-76	-587	126	31
81	-845	-290	-174	31
90	-844	57	64	31
155	-100	-36	-100	31
166	331	428	-635	31
89	470	748	-487	31
-2	169	353	-131	31
-53	-269	212	149	31
-99	-473	102	7	31
-134	-217	-403	26	31
-81	29	-477	61	31
16	-207	214	83	31
44	-246	957	95	31
139	-285	694	26	31
186	-41	492	36	31
47	169	575	-238	31
32	-36	-743	-593	31
61	-27	-1899	-822	31
71	-120	-904	-475	31
134	-16	275	-123	31
95	166	1154	-201	31
-13	94	2175	124	31
-179	-4	884	731	31
-314	-28	-486	212	31
-312	132	-1117	-806	31
-192	183	-1728	174	31
69	72	-922	1545	31
308	214	-759	2171	31
367	488	-776	1236	31
252	416	-312	-808	31
37	296	-44	-793	31
-144	68	373	-1432	31
-215	-56	881	-628	31
-116	168	1633	1796	31
122	99	1861	2048	31
245	-47	1731	156	31
269	-234	1942	-2173	31
267	-249	306	-1312	31
180	16	-882	-279	31
112	86	-820	899	31
99	41	-2414	1588	31
41	-89	-2765	523	31
-110	-92	-1714	-444	31
-248	3	-788	-1611	31
-260	-39	61	-1821	31
-203	-117	1104	-1512	31
-208	-99	2503	2	31
-146	-77	2297	1288	31
-47	-210	1875	353	31
-117	-225	1010	309	31
-91	-57	-1893	1788	31
-23	57	-2587	-117	31
24	91	-2072	-1584	31
181	41	-1037	-240	31
243	-126	-541	-1721	31
288	-170	-1729	-217	31
233	28	-432	2797	31
6	247	-1069	3502	31
-171	501	-1660	2081	31
-254	431	908	-1168	31
-255	16	2811	-1232	31
-206	-113	2930	-397	31
-55	-22	2725	50	31
187	-18	2345	-1161	31
308	-230	1376	-2108	31
197	-395	1100	-1235	31
104	-299	-644	-450	31
148	-191	-1499	1031	31
215	-145	-2146	1212	31
239	-80	-2052	590	31
144	83	-2004	1161	31
9	160	-2078	1022	31
-195	325	-142	-1160	31
-326	498	518	-1099	31
-264	212	1063	-683	31
-174	-29	974	-776	31
-63	24	1272	-238	31
-4	11	1241	-716	31
-13	-129	1724	-757	31
16	-188	2426	634	31
52	-188	999	1235	31
42	-304	-34	-608	31
9	-229	-1398	473	31
33	-112	-2146	2518	31
43	-107	-2195	1935	31
-55	32	-814	1827	31
-155	52	-984	760	31
-193	110	-1564	-991	31
-119	389	842	-1642	31
24	332	1557	-563	31
112	245	798	1594	31
157	472	-452	175	31
186	294	-569	-2844	31
103	-32	-77	-3185	31
74	-118	478	-1585	31
254	-235	283	-181	31
310	-204	80	1692	31
39	-47	-353	1661	31
-135	-22	-595	-1291	31
-52	-154	1238	19	31
-83	-199	17	1642	31
-88	-79	289	2396	31
-42	22	1562	1505	31
-9	224	693	-2818	31
90	288	-1116	-2261	31
92	-93	-2667	-2303	31
-106	-473	-407	-2031	31
-374	-359	1354	329	31
-478	-26	1141	995	31
-343	104	69	1663	31
-19	126	-126	1029	31
249	269	1044	1395	31
271	287	1053	1013	31
122	139	336	1281	31
86	367	197	-374	31
116	333	-34	-1575	31
197	-96	-645	-266	31
236	-369	-798	-1181	31
76	-721	-1099	-740	31
-10	-646	-1333	-346	31
-78	-224	-1631	1952	31
-117	30	-463	3200	31
-175	441	958	-213	31
-254	706	-217	-172	31
-199	288	-782	1865	31
-195	-116	-1519	474	31
-69	-72	-372	104	31
58	-36	1546	-151	31
-107	-84	1277	-1640	31
46	-259	688	-2503	31
52	-151	-307	-2636	31
-408	91	100	-2264	31
-67	-18	693	-2191	31
373	-71	1730	-444	31
268	-107	1748	2674	31
77	-35	521	4000	31
-108	173	-969	2433	31
5	277	-2037	-826	31
-9	226	-631	-1340	31
-17	113	-452	-1196	31
45	-32	223	-796	31
-70	-257	2014	-891	31
-36	-217	3425	-347	31
-136	-149	2814	762	31
-257	-84	-658	675	31
-202	87	-3208	-76	31
-152	139	-4000	-478	31
-57	71	-3294	-326	31
-56	-115	-710	892	31
-19	-121	648	707	31
34	-152	1599	-964	31
3	50	1481	14	31
-38	397	1538	994	31
-54	307	663	1434	31
-9	273	-595	-326	31
-107	96	-1476	-1765	31
-254	8	-1534	-943	31
-125	185	227	-202	31
62	54	1788	2512	31
-9	-105	1359	2059	31
48	-178	684	-243	31
304	-348	-74	-793	31
374	-350	-947	-2220	31
315	-200	274	-1776	31
152	-238	1507	1216	31
-39	-79	832	2987	31
-103	104	-214	1288	31
61	66	-305	-883	31
279	175	-5	-1737	31
369	63	86	-1106	31
412	17	-120	816	31
287	187	-1572	740	31
-86	84	-1204	475	31
-370	6	909	590	31
-274	-18	1624	356	31
-181	-125	1154	-1314	31
-156	-78	175	-1199	31
-19	75	-50	563	31
16	156	-1233	-77	31
24	89	-2363	851	31
49	111	-1962	924	31
-22	74	-700	-1960	31
32	-182	1901	-3014	31
24	-167	3080	-2001	31
-142	-99	1621	-157	31
46	-3	-1965	2830	31
177	177	-3598	3686	31
94	61	-1645	1988	31
-6	-72	59	756	31
-139	-47	699	-375	31
-9	111	744	-805	31
60	235	642	-1306	31
72	17	722	-1292	31
62	-112	541	-621	31
-32	-10	41	-868	31
-19	-44	-296	99	31
-24	-51	-366	866	31
43	-47	66	1431	31
63	-27	323	916	31
19	16	324	-1271	31
64	-14	548	-1585	31
92	17	290	-1003	31
71	4	-368	553	31
-40	-46	192	287	31
-97	-55	1065	-1150	31
-94	-12	433	1601	31
-112	55	-501	3489	31
-210	96	-1661	1335	31
-307	92	-1328	-712	31
-255	69	-101	-839	31
-298	63	171	-283	31
-202	0	446	-360	31
70	-19	279	-965	31
271	116	267	-793	31
527	102	357	11	31
518	-146	164	177	31
447	-235	-468	-16	31
493	-151	-1115	-628	31
263	-51	-477	-1965	31
168	9	1128	-2172	31
18	-59	1637	-870	31
-224	-14	1257	2648	31
-99	66	-57	4000	31
-126	21	-1128	752	31
-273	8	-730	-562	31
-275	14	-502	79	31
36	51	439	-1013	31
84	64	684	-330	31
-218	154	605	-234	31
-86	184	92	298	31
-237	237	-649	66	31
-230	139	-173	-43	31
99	-322	89	-516	31
-49	-214	96	-1847	31
-39	247	-624	-1027	31
81	543	-467	-968	31
235	613	314	637	31
261	145	685	2123	31
56	-533	25	843	31
13	-722	-733	192	31
14	-359	724	-111	31
-37	-161	1263	187	31
-144	-221	-338	164	31
-243	-90	-744	16	31
-272	87	445	280	31
-101	82	52	278	31
96	25	-1055	2	31
161	-7	-1301	67	31
212	9	-811	76	31
99	-19	153	214	31
-35	-90	274	357	31
12	-7	644	388	31
7	102	306	417	31
-103	79	-311	-712	31
-124	168	-665	-933	31
-137	368	-571	-840	31
-182	277	1380	-387	31
-124	87	1872	-571	31
-55	175	1314	-1153	31
-111	108	753	-795	31
-74	15	-328	-998	31
138	121	-1835	719	31
247	-382	-2155	1570	31
192	-927	-986	88	31
227	-616	156	562	31
328	-190	1415	1504	31
172	142	743	718	31
19	254	-239	-821	31
19	54	-14	-918	31
-47	-111	529	115	31
19	-155	1150	920	31
167	36	970	424	31
176	157	-109	239	31
91	190	-979	818	31
-75	217	-1092	12	31
-232	179	-598	-964	31
-93	171	792	-575	31
6	119	616	745	31
-147	9	-249	-253	31
-149	-101	-606	-531	31
-196	-124	-1321	-34	31
-309	-108	-649	-76	31
-67	-54	400	886	31
209	44	493	-511	31
191	57	257	-480	31
244	35	-346	106	31
230	83	-721	230	31
125	95	60	593	31
15	79	182	-487	31
-204	89	-237	-401	31
-180	36	338	-1072	31
-11	-41	1203	-932	31
14	-82	1674	-175	31
-111	-27	1065	736	31
-142	46	-414	1976	31
-104	69	-748	389	31
-210	42	316	-1172	31
-122	-14	57	-763	31
72	-4	-583	-224	31
72	14	-504	423	31
-47	37	-124	99	31
-95	-2	-226	-1101	31
52	-54	-1302	-379	31
189	-9	-922	658	31
274	5	246	1166	31
134	52	310	843	31
-181	37	557	-170	31
-235	-19	585	249	31
-154	34	-175	1544	31
-102	50	540	1093	31
67	72	1453	-859	31
377	22	950	-607	31
274	-39	-299	-587	31
-156	1	-2391	-969	31
-34	-17	-2166	-487	31
5	-38	-104	-530	31
-81	-44	664	-72	31
120	-82	181	623	31
-79	-99	-333	876	31
-91	33	275	-88	31
-42	210	831	-704	31
-102	404	918	-189	31
-25	563	613	106	31
-85	89	362	91	31
-13	-361	60	-125	31
-51	18	204	-127	31
-49	114	392	-206	31
25	-139	177	-177	31
26	-107	367	496	31
58	-480	-63	740	31
93	-805	-471	557	31
228	-428	-657	-24	31
130	-78	-382	-892	31
12	75	916	-357	31
152	49	1127	-147	31
234	-47	-555	-152	31
132	-26	-1750	424	31
-56	37	-939	19	31
-162	265	719	-470	31
-230	460	1119	-797	31
-184	380	-549	182	31
-119	230	-1622	1298	31
-132	170	-629	366	31
-87	217	527	-62	31
-26	429	273	-250	31
21	366	-468	-73	31
70	-154	-215	969	31
149	-735	-584	1187	31
176	-1063	-591	46	31
159	-644	200	-1077	31
59	-76	327	-314	31
-32	-31	675	-684	31
-29	47	468	-347	31
-50	60	7	-16	31
-72	43	-74	-400	31
-104	121	187	-99	31
-110	130	616	-1356	31
-126	118	1340	-1670	31
-137	-18	1521	-1239	31
-223	-64	-486	576	31
-229	31	-1489	3427	31
-104	98	-256	3719	31
6	124	302	1394	31
276	179	-253	322	31
335	235	-340	600	31
272	277	-156	-206	31
247	513	-403	-1313	31
61	844	-393	-2227	31
49	732	125	-1042	31
42	242	647	-266	31
-77	-35	454	-445	31
22	-425	174	-157	31
113	-953	277	-254	31
14	-871	184	71	31
-100	-388	-336	-161	31
-174	-139	-132	-401	31
-130	-24	691	-299	31
84	-19	613	509	31
164	-129	142	1401	31
-107	-183	-37	941	31
-195	-202	-372	-345	31
-28	5	-1062	-62	31
107	99	-1099	617	31
151	60	-161	-41	31
46	145	572	-339	31
36	75	410	-382	31
45	88	-24	176	31
42	94	-195	-186	31
51	34	-1	-427	31
34	71	247	-67	31
17	67	92	-49	31
-35	74	-93	44	31
-57	18	111	-102	31
-39	-96	707	-247	31
-9	-195	1117	-807	31
-4	-191	397	-951	31
25	-46	-1710	-555	31
46	127	-2024	581	31
89	299	301	1066	31
82	235	1477	480	31
-58	28	1373	135	31
-96	70	832	419	31
-83	213	-1601	989	31
-69	207	-2276	227	31
-51	39	-495	407	31
-57	-71	46	-64	31
-94	-83	-643	-1088	31
-140	-82	-691	-459	31
-107	49	1135	-171	31
-137	174	1267	1659	31
-45	102	353	1818	31
55	-17	232	-762	31
-120	-41	299	-1305	31
-77	-273	-601	-981	31
59	-259	-1115	-993	31
76	196	566	157	31
101	92	573	887	31
104	-211	-332	-72	31
240	-95	-174	16	31
422	37	103	1311	31
502	89	250	653	31
372	35	529	-5	31
-7	50	338	288	31
-211	234	-33	-24	31
-267	227	-91	-495	31
-210	12	209	-1576	31
-107	-157	1307	-1530	31
-214	-317	1958	-454	31
-141	-390	1626	239	31
-56	-184	376	830	31
35	-17	-1582	1587	31
91	52	-1927	498	31
29	93	393	-1459	31
-45	1	228	-958	31
-73	57	-2672	-314	31
155	144	-2818	-257	31
161	230	-968	-22	31
-77	467	-464	158	31
-271	617	-294	585	31
-260	500	451	173	31
-141	249	-300	-434	31
-70	-69	-165	-266	31
24	-687	1153	493	31
90	-909	2100	916	31
220	-558	2110	111	31
112	-433	535	357	31
-33	-192	-362	199	31
46	12	-588	-856	31
81	1	91	-751	31
196	169	921	-84	31
95	157	238	1046	31
-146	135	-378	910	31
-145	169	-588	204	31
-151	123	-448	-31	31
-102	215	-355	-229	31
-64	287	-301	66	31
-255	244	356	209	31
-255	80	639	84	31
2	-168	356	-62	31
97	-310	33	-212	31
51	-177	-3	-216	31
-21	19	-30	-269	31
-106	360	-77	-200	31
-61	602	184	16	31
103	147	272	103	31
183	-171	-693	190	31
180	-29	-1004	-192	31
277	-69	377	-622	31
244	-350	579	-59	31
75	-496	131	570	31
141	-48	938	379	31
161	446	1693	-222	31
80	375	599	-198	31
36	121	-541	535	31
-34	-175	-1032	736	31
25	-533	-1268	-493	31
79	-606	-946	-915	31
-6	-394	-1449	-169	31
16	-208	-1293	-72	31
73	-49	-66	264	31
-2	-19	741	-204	31
-26	155	451	-662	31
-101	490	190	127	31
0	177	585	626	31
99	-159	531	-312	31
-110	-7	159	-1168	31
-178	95	642	-938	31
-202	92	420	610	31
-136	65	-1134	2877	31
-29	146	-1455	1818	31
-37	177	-666	-34	31
-141	121	635	-724	31
-241	71	636	-1000	31
-64	-5	-237	-341	31
195	-9	1075	-467	31
154	21	2660	-51	31
-54	67	1153	418	31
-4	245	-1305	253	31
124	380	-1383	-159	31
2	132	-1494	-304	31
-154	-120	-1153	-169	31
33	-242	482	-157	31
80	-337	1142	119	31
24	-129	894	-79	31
95	38	22	-678	31
7	53	-310	-785	31
94	171	426	545	31
-77	306	393	1643	31
-189	293	-541	2118	31
40	157	144	732	31
15	16	683	-2135	31
-12	-334	-482	-2683	31
82	-626	-7	-1198	31
77	-510	230	1645	31
37	-434	-719	1043	31
71	-308	-1774	-668	31
51	6	-1146	373	31
32	210	482	1119	31
-68	551	468	1470	31
-270	569	-14	129	31
-203	130	-224	-48	31
-52	-1	584	-457	31
-35	67	609	-798	31
29	436	561	-222	31
94	767	613	-402	31
215	661	-12	71	31
160	197	-21	-236	31
34	-474	-62	-46	31
186	-889	285	-468	31
121	-948	249	-367	31
-104	-333	121	-96	31
-364	65	491	-663	31
-443	-97	-78	-134	31
-206	-64	-975	101	31
-190	-185	-1069	621	31
-26	-192	-413	1394	31
300	-64	177	1700	31
370	42	68	-37	31
282	86	-440	-697	31
300	17	-499	-521	31
546	66	753	-1018	31
302	84	1283	-131	31
-319	142	573	-56	31
-298	107	408	263	31
-87	38	347	35	31
-27	45	205	67	31
181	35	-124	9	31
201	76	-723	-622	31
68	37	-472	-119	31
-39	28	626	-174	31
-114	84	914	126	31
-52	82	280	369	31
32	115	-183	-22	31
-112	334	-131	-229	31
-250	387	-247	-119	31
-173	109	-128	517	31
-207	-192	-70	1066	31
-170	-554	-891	861	31
25	-486	-1022	111	31
107	-54	-483	-635	31
62	39	-147	-1358	31
15	71	268	-951	31
52	79	257	-4	31
0	128	-210	500	31
39	465	-721	877	31
101	592	-751	268	31
40	253	-220	-141	31
54	-357	-292	132	31
68	-586	-289	257	31
4	-426	-407	502	31
-132	-393	223	33	31
-51	-127	1484	-365	31
1	-1	1005	-680	31
-121	-38	829	-806	31
-79	205	1067	-267	31
-29	372	627	-355	31
-69	250	457	229	31
-39	-1	113	710	31
89	71	-640	389	31
181	182	-1120	164	31
219	332	-997	267	31
24	646	-47	503	31
-68	601	501	-106	31
117	79	102	-433	31
42	-698	477	-379	31
38	-1115	332	-559	31
75	-1020	123	56	31
-32	-701	-61	1454	31
-120	-284	-713	1185	31
-139	-54	-358	-962	31
-19	49	345	-1328	31
-34	189	517	-416	31
0	188	-141	-104	31
34	205	-121	515	31
-29	382	-516	344	31
-42	416	-783	-149	31
-33	227	-262	-171	31
14	22	-68	-82	31
75	-144	383	59	31
166	-299	516	-96	31
118	-164	568	-176	31
-3	61	277	-305	31
-147	64	411	-212	31
-199	120	174	444	31
-67	138	-986	808	31
-60	74	-930	160	31
-47	70	-718	-426	31
-9	106	-982	-1166	31
-40	164	266	-853	31
-73	229	1451	652	31
-121	406	1613	58	31
-64	441	1333	378	31
36	122	-279	1184	31
99	-106	-1260	214	31
100	-353	-1506	105	31
99	-539	-540	400	31
71	-249	475	413	31
-23	-82	338	163	31
-13	132	448	82	31
24	299	77	-123	31
-14	-41	111	-249	31
-57	-93	241	-170	31
-79	64	259	-232	31
-102	49	202	-200	31
-28	31	-7	-164	31
63	-10	-61	74	31
14	-36	-155	-152	31
-16	-16	-50	-136	31
3	-5	101	-22	31
76	-25	19	-235	31
137	-27	-112	-172	31
146	-42	255	-127	31
139	-46	421	-124	31
48	4	465	-67	31
47	22	470	117	31
37	41	-275	312	31
-77	107	-879	136	31
-76	168	-1060	-292	31
-77	181	-1082	-323	31
-111	195	-761	-100	31
-76	265	-328	392	31
-77	277	139	111	31
-38	146	565	-413	31
-29	51	636	201	31
-156	-129	167	324	31
-54	-175	-307	128	31
212	-80	-213	-254	31
249	-487	915	-196	31
53	-741	1787	796	31
139	-665	1078	887	31
215	-420	416	592	31
-3	485	-225	37	31
-117	1146	-1338	-698	31
-180	664	-1399	-635	31
60	-174	-257	-587	31
-14	-390	210	-617	31
-139	-498	312	-650	31
12	-659	606	-504	31
-27	-274	361	318	31
6	99	200	266	31
-78	32	195	-90	31
20	-104	224	102	31
118	-25	-98	28	31
218	204	-528	359	31
161	175	-951	442	31
-76	121	-1276	-56	31
-3	377	-948	-157	31
26	608	-107	323	31
-2	532	864	327	31
-19	115	1438	-2	31
99	-357	1403	407	31
-207	-865	33	599	31
-387	-857	-1426	432	31
53	-140	-1434	47	31
-63	101	-651	-825	31
-127	205	182	-526	31
121	675	419	322	31
87	964	556	353	31
42	795	683	187	31
-98	84	773	-66	31
-77	-588	758	-13	31
126	-729	-6	25	31
179	-672	-556	-60	31
320	-556	-745	-1	31
107	-217	-623	-1	31
-341	-16	-42	74	31
-131	36	174	-62	31
-107	105	580	-285	31
-37	71	427	-362	31
48	49	446	-259	31
-234	52	1133	-31	31
-2	70	628	-11	31
-54	59	-112	-104	31
-50	59	-947	-154	31
116	75	-1652	-177	31
209	78	-1185	121	31
240	127	33	412	31
-156	214	407	159	31
-119	350	-87	99	31
149	307	-611	347	31
67	-12	-706	453	31
27	-135	252	313	31
67	107	453	-329	31
-47	190	796	-625	31
-32	151	890	-98	31
-116	420	-122	518	31
-138	764	-302	741	31
-68	982	-149	-60	31
-141	817	78	-493	31
-141	-147	119	-416	31
-54	-1246	473	-486	31
104	-724	523	-46	31
191	1121	102	-274	31
295	1750	62	-347	31
209	983	-59	-371	31
152	-780	74	-490	31
153	-2869	162	-362	31
-40	-3329	282	-371	31
-96	-2262	404	261	31
86	-894	335	697	31
19	-180	44	643	31
-91	169	-307	587	31
147	426	-631	487	31
-102	606	-716	106	31
-384	785	-701	221	31
-279	432	-1456	540	31
-1	-127	-1327	223	31
151	-131	519	-101	31
-4	416	2572	-139	31
29	880	1693	159	31
202	1354	-812	85	31
191	2030	-1024	-228	31
-136	2208	-264	-154	31
-99	1270	447	-247	31
285	-607	317	-492	31
137	-1935	220	-464	31
4	-1693	79	-285	31
49	-1275	-311	-111	31
-41	-1012	-275	131	31
-45	-457	-158	350	31
-244	-82	561	341	31
-215	84	563	124	31
36	-549	325	-89	31
117	-818	124	-124	31
159	-284	-309	23	31
39	274	-694	124	31
-66	998	-808	3	31
52	1332	-109	-232	31
-81	905	176	-174	31
-370	-303	94	80	31
-136	-1049	495	62	31
233	-771	743	300	31
296	651	159	377	31
20	2226	-455	2	31
2	2318	-1013	17	31
36	2263	-1109	-371	31
-150	1760	-147	-483	31
-98	36	399	263	31
81	-561	259	-21	31
131	-636	42	-74	31
-2	-2187	-261	294	31
44	-2726	-169	-58	31
17	-1356	391	-197	31
89	-928	513	26	31
179	-998	653	379	31
-71	-728	809	-47	31
-92	-1275	641	-228	31
-48	-1593	626	39	31
-286	-1007	299	-85	31
-236	-111	100	-116	31
62	184	152	-249	31
161	163	-36	-90	31
-72	466	-227	84	31
-189	556	-430	195	31
193	731	-593	318	31
107	803	-469	199	31
-430	937	-435	-132	31
-1249	1143	-344	-150	31
-1382	1201	-730	372	31
-314	1238	-999	472	31
418	1002	-428	-31	31
1244	905	-273	-269	31
1358	846	7	141	31
665	173	182	61	31
778	-674	173	-132	31
563	-838	-32	84	31
202	-649	-112	-324	31
126	-273	358	-304	31
-52	38	259	623	31
-82	92	216	627	31
-68	185	177	-57	31
-34	159	46	-142	31
-58	37	454	-96	31
117	-289	1143	-144	31
27	-369	1374	-207	31
-306	-308	1113	-183	31
-487	-342	247	-221	31
-476	16	-974	-436	31
-82	104	-1000	-500	31
279	-32	-410	-221	31
128	-100	480	340	31
-456	-227	814	170	31
-427	-180	-214	139	31
-69	-174	-1298	433	31
249	-135	-1372	467	31
485	34	-647	593	31
-2	336	250	90	31
-124	557	808	-495	31
181	637	390	-729	31
-36	387	55	-521	31
-139	-150	-235	-272	31
-56	123	-816	63	31
31	731	-834	502	31
169	851	-170	390	31
-56	282	495	-2	31
-265	-772	551	-235	31
-247	-553	686	-284	31
-188	1264	608	-312	31
185	2426	165	74	31
233	1636	71	731	31
-244	36	-152	703	31
-355	-2009	-318	80	31
-234	-3276	-151	-459	31
-188	-2736	94	-660	31
-82	-2034	46	76	31
-56	-1078	-74	125	31
-93	-102	-177	193	31
285	427	-498	1068	31
288	777	28	101	31
-56	1002	811	-422	31
128	1308	965	-400	31
180	857	880	-612	31
-53	199	484	12	31
-992	-522	203	367	31
-1402	-820	-258	590	31
-300	99	-769	138	31
606	963	-1048	-76	31
540	1417	-942	-60	31
121	800	-345	-333	31
151	-88	-304	-256	31
241	-446	63	-317	31
374	-733	44	7	31
708	340	-194	94	31
457	1172	422	-106	31
178	-18	934	8	31
-74	-716	1390	197	31
-551	21	1052	195	31
-544	736	704	-157	31
-494	621	44	-281	31
-495	-598	-1115	-321	31
187	-2571	-1459	385	31
906	-4000	-1283	890	31
124	-3280	-239	418	31
-38	-642	-2	98	31
563	203	-392	-365	31
9	451	-214	-359	31
8	967	-382	-278	31
-219	939	-375	21	31
-220	937	-107	161	31
455	818	377	-109	31
390	653	491	164	31
94	669	110	-69	31
64	719	-219	-37	31
111	815	269	-7	31
-147	828	618	-520	31
10	650	396	-106	31
45	50	845	350	31
-299	-466	764	56	31
-187	-593	81	-155	31
30	-519	-530	-92	31
-42	-104	-1308	267	31
-96	-183	-1790	101	31
69	-464	-1265	-276	31
-401	-16	-198	357	31
-401	520	515	226	31
79	1269	812	-126	31
-381	2104	899	61	31
-57	1872	864	-32	31
324	405	487	-275	31
205	-1066	37	-635	31
532	-1171	289	-250	31
248	-564	848	547	31
-120	-288	659	617	31
-57	-372	425	220	31
-45	-354	407	335	31
-219	-25	-213	76	31
-220	123	-644	-297	31
157	283	-372	-130	31
195	697	402	-64	31
380	846	1142	-48	31
765	528	596	-146	31
449	689	-597	-169	31
265	1445	-1265	-96	31
179	1023	-1739	380	31
-187	-718	-1594	215	31
-397	-2151	-704	-342	31
-533	-1178	-27	-31	31
-398	1700	223	-194	31
-237	1995	443	-98	31
-307	-318	704	400	31
-453	-2352	867	238	31
-23	-3883	657	-231	31
646	-3224	168	-443	31
463	-1020	-11	-224	31
139	-259	599	-104	31
-428	-121	1140	-152	31
-619	257	387	-369	31
-44	403	-245	-117	31
194	554	-663	904	31
650	572	-1095	932	31
1106	471	-696	-65	31
715	431	-379	327	31
-620	392	-222	729	31
-1279	455	6	-103	31
-358	533	313	-445	31
314	1142	520	-471	31
393	1668	859	-630	31
1094	640	799	-570	31
766	-686	257	-539	31
-520	-1598	274	-154	31
-435	-1902	288	492	31
-375	-943	-116	512	31
-676	-175	74	235	31
-185	53	314	94	31
242	369	-426	-41	31
-24	614	-733	9	31
-124	844	-606	168	31
-355	793	-558	665	31
-616	375	-772	439	31
-62	197	-1212	-244	31
716	208	-1559	371	31
1170	124	-1624	359	31
828	173	-961	105	31
730	136	59	282	31
931	158	1027	-242	31
821	265	1009	-259	31
330	225	957	-76	31
-371	199	1151	-380	31
-258	79	794	-563	31
-171	-131	541	-484	31
-471	-48	238	-152	31
-839	295	289	-149	31
-612	231	631	-317	31
-302	-39	676	-357	31
-548	-226	-237	-457	31
-568	-433	-975	-399	31
-340	-315	-561	-327	31
-2	-11	-230	-286	31
-92	94	-174	312	31
-295	64	153	1089	31
-66	160	952	775	31
424	-2	853	745	31
475	-423	111	1027	31
-290	-201	-139	778	31
-604	760	-888	988	31
-477	1668	-1563	366	31
-185	1431	-985	-1037	31
437	393	22	-1036	31
278	-794	179	-653	31
274	-1696	-295	-1063	31
515	-1213	-42	-562	31
157	-512	545	449	31
-136	31	596	307	31
-412	526	480	-23	31
-981	249	211	63	31
-1092	-323	-157	142	31
-269	-1241	-380	421	31
454	-1262	-303	303	31
809	-493	-370	-93	31
632	59	-52	-297	31
472	343	761	-466	31
291	-94	1094	-430	31
117	-106	742	-484	31
-321	567	-154	-352	31
-666	1089	-583	220	31
273	899	-483	269	31
108	-36	107	80	31
-354	-938	817	234	31
104	-1197	1090	205	31
189	-967	939	97	31
128	-688	598	-85	31
82	-362	995	-122	31
-31	-184	959	49	31
-73	206	79	-47	31
61	716	-846	-21	31
-372	1138	-1795	189	31
-660	1390	-2008	218	31
392	755	-1635	-24	31
620	27	-1032	67	31
-195	44	-507	297	31
72	375	-176	26	31
104	765	28	96	31
-162	1306	215	480	31
-44	997	470	168	31
-59	-100	476	-281	31
-81	-593	396	-415	31
97	-1027	382	-283	31
227	-916	862	248	31
37	-336	1127	289	31
251	-546	1131	226	31
-66	-643	1132	297	31
-693	-613	99	-149	31
-600	-570	-688	-319	31
-330	-213	-868	-355	31
-86	23	-1325	-643	31
-84	538	-1182	-67	31
213	1235	-362	563	31
505	1816	411	570	31
267	2243	639	622	31
35	1682	340	266	31
95	-202	16	-171	31
7	-2125	-559	-212	31
12	-2480	-959	-191	31
110	-1592	-586	-267	31
-190	-488	-395	-500	31
-547	-58	-209	-1020	31
-590	-210	121	-881	31
-360	28	-26	162	31
-166	21	57	664	31
544	-237	460	824	31
565	-295	704	533	31
107	-109	648	147	31
217	184	915	232	31
46	300	1162	-77	31
194	511	1438	-245	31
181	102	2082	-445	31
-34	-796	1784	-661	31
212	-1164	889	-433	31
670	-1133	-156	-349	31
604	-740	-1483	-384	31
-181	137	-2362	-75	31
-648	1131	-2158	188	31
-749	1672	-2088	926	31
-150	1454	-1621	1230	31
591	950	-170	809	31
172	676	431	1012	31
-73	466	408	728	31
44	327	-86	-46	31
-200	169	-1080	-684	31
-61	-96	-1679	-426	31
47	-91	-1850	234	31
-99	39	-1103	-447	31
-80	87	286	-1151	31
4	141	765	21	31
77	18	917	439	31
100	-287	953	-154	31
181	-340	862	403	31
-16	-1	854	181	31
-85	111	486	-276	31
-46	-239	285	-240	31
-208	-606	578	-463	31
-76	-918	1463	-511	31
-2	-894	1854	-517	31
-24	-596	1235	-221	31
102	-362	67	214	31
222	179	-974	421	31
-47	518	-1227	456	31
-257	549	-1151	111	31
-97	636	-377	117	31
-277	606	371	377	31
-351	866	453	82	31
-254	1005	469	70	31
-331	699	344	-18	31
-24	576	188	-467	31
337	311	-192	-820	31
127	-511	-396	-868	31
-178	-1255	-626	51	31
-412	-1384	-831	1183	31
-332	-566	-297	682	31
-41	198	38	-27	31
76	12	212	132	31
523	-468	528	-235	31
275	-602	657	-284	31
253	455	761	-319	31
820	1539	499	-208	31
412	910	397	527	31
147	-330	343	505	31
50	-1033	-16	16	31
144	-1467	-54	289	31
-220	-1643	-569	512	31
-234	-1077	-1041	109	31
352	-190	-384	-580	31
-64	193	-1	-984	31
-18	219	165	-254	31
221	241	482	96	31
267	423	129	-351	31
342	541	-318	-461	31
292	483	-509	167	31
349	310	-350	705	31
-27	-14	372	275	31
-660	-322	987	-169	31
-711	-287	1038	-502	31
-131	-160	947	-367	31
-133	-198	408	49	31
-191	-74	185	89	31
-5	84	502	180	31
-24	367	-527	-70	31
235	529	-1109	-16	31
248	498	-1050	600	31
359	284	-2127	511	31
126	-159	-1914	157	31
-273	-340	-960	264	31
-93	-341	-522	318	31
-57	51	38	-96	31
85	598	-107	-357	31
2	883	-199	45	31
-155	880	-229	135	31
-169	804	181	73	31
-99	706	1029	-319	31
26	249	1027	-385	31
-411	-309	693	150	31
-425	-804	873	12	31
-78	-576	2281	112	31
-79	-212	2835	94	31
79	-382	1605	-12	31
283	-267	78	-124	31
250	-239	-2246	-285	31
-260	-119	-3861	-12	31
-200	210	-3087	708	31
353	410	-1098	1140	31
295	468	79	-20	31
193	302	-124	-743	31
-71	278	-267	-386	31
-126	265	263	-290	31
-21	126	1277	-202	31
-183	-270	2266	-388	31
-421	-678	2030	-422	31
-432	-761	1051	-285	31
-81	-594	-34	-144	31
174	-244	-1388	192	31
336	38	-1762	395	31
105	358	-1306	627	31
57	569	-314	519	31
440	881	90	447	31
740	1251	21	394	31
608	526	425	-128	31
-168	-921	329	-379	31
-259	-1710	359	-322	31
218	-1297	344	49	31
-145	-486	452	240	31
-347	-306	475	-45	31
-46	-213	152	68	31
-149	-36	217	155	31
-182	165	573	-127	31
-61	566	814	-392	31
-37	648	387	-735	31
46	402	-246	-480	31
82	179	-846	409	31
67	-25	-1046	57	31
115	-159	-662	-422	31
166	-218	-29	211	31
147	-361	482	-22	31
251	-408	581	77	31
191	-391	655	459	31
-70	-375	581	-77	31
-86	-186	387	-184	31
-117	431	238	-154	31
-250	1286	76	-312	31
-364	1204	7	-568	31
-294	381	114	-135	31
-34	-111	280	324	31
155	-169	38	60	31
-155	270	-571	365	31
-281	464	-1042	707	31
60	127	-1151	838	31
176	-163	-1070	239	31
283	-477	-598	42	31
103	-268	240	488	31
-114	200	697	72	31
-344	410	681	67	31
-398	684	250	-175	31
-70	361	-26	-112	31
-94	-174	-137	539	31
67	-686	-169	189	31
350	-1278	307	-603	31
431	-1000	693	-893	31
403	-576	1082	-841	31
89	-298	1247	-926	31
93	-152	1104	-793	31
-101	-543	505	-352	31
-509	-561	-316	122	31
-272	-201	-534	165	31
-27	236	-1455	-122	31
155	609	-2268	-39	31
430	584	-2508	853	31
417	589	-2477	1857	31
255	646	-1460	1210	31
399	518	-573	-2	31
16	399	104	-122	31
-863	313	579	-136	31
-665	183	543	107	31
-71	84	761	152	31
15	106	1127	-84	31
-244	185	1252	-76	31
-535	92	1614	-252	31
-112	-82	1876	-338	31
536	41	1486	-349	31
502	207	449	101	31
327	106	-552	304	31
-47	-262	-1051	-236	31
-500	-696	-929	-778	31
-302	-525	-470	-426	31
205	-143	-355	759	31
807	-44	151	913	31
716	-20	75	11	31
44	1	41	-500	31
61	186	448	-667	31
166	109	32	-427	31
-106	-221	-29	-19	31
54	-202	-34	-41	31
-14	155	175	-147	31
-412	315	615	-245	31
-430	-14	548	-239	31
-257	-403	485	-47	31
-28	-639	1095	258	31
-13	-471	954	382	31
-104	269	-332	269	31
-365	639	-1067	239	31
-308	623	-1676	173	31
350	361	-1481	-22	31
512	34	-41	-29	31
-89	229	580	-266	31
-595	165	120	-729	31
-529	-43	-235	-499	31
-103	-158	-810	497	31
179	-29	-1112	801	31
86	-62	-649	-261	31
264	-549	-189	-283	31
306	-328	154	595	31
184	-162	427	820	31
385	-132	605	466	31
396	-82	644	-12	31
260	-148	543	-57	31
76	264	331	-203	31
-52	175	265	-42	31
-121	-101	215	-79	31
-250	-49	65	-156	31
-298	-187	-80	-81	31
-234	-431	-200	-89	31
-236	-697	-41	-52	31
-90	-567	248	-213	31
-84	-138	654	-44	31
-240	169	893	-234	31
82	699	906	-302	31
-192	1035	1089	-60	31
-458	624	1264	-151	31
198	164	811	-166	31
395	16	269	161	31
242	38	-655	639	31
204	72	-2877	672	31
217	29	-3180	409	31
-76	106	-1167	89	31
-412	186	-99	-39	31
-96	185	400	-45	31
281	108	683	-179	31
90	37	270	-478	31
-48	3	-283	-740	31
163	-89	-776	-428	31
31	-1	-826	479	31
112	175	-264	901	31
162	104	317	577	31
2	-260	706	41	31
136	-426	843	-295	31
57	-60	456	131	31
-14	376	125	389	31
9	710	-41	-21	31
34	736	-71	-474	31
39	262	139	-337	31
-34	-486	61	-416	31
-149	-1115	42	-224	31
-131	-1000	82	186	31
-72	-393	214	-253	31
-109	-129	592	-161	31
-2	-167	600	-98	31
-83	-101	600	222	31
-115	-24	806	391	31
-44	-4	294	195	31
-36	29	-621	255	31
132	29	-922	-124	31
74	67	-1073	-1	31
12	182	-796	-40	31
131	619	27	-280	31
61	1170	215	-559	31
78	825	-163	-578	31
65	-42	-448	166	31
-51	-802	-676	592	31
20	-1281	-581	441	31
-34	-701	-322	-167	31
-37	-125	-126	119	31
-37	-92	372	550	31
-60	167	860	-45	31
-24	122	1211	-179	31
-127	114	978	-224	31
-96	157	634	-284	31
9	139	222	-2	31
3	392	-377	96	31
-114	445	-320	111	31
59	145	-568	127	31
168	-430	-732	131	31
35	-587	-343	49	31
128	-170	-25	143	31
121	248	127	36	31
16	319	220	-108	31
-71	-49	425	-66	31
-52	-389	365	-134	31
-75	-288	294	-149	31
-5	65	181	-75	31
19	502	-124	109	31
-109	488	-255	145	31
26	-193	31	67	31
-57	-352	147	-189	31
5	177	-26	-247	31
187	691	-28	-2	31
99	656	-72	181	31
21	265	83	292	31
-25	266	329	192	31
51	525	362	109	31
-2	1209	173	89	31
65	1131	-338	-15	31
-59	-491	-601	-122	31
-357	-1705	-526	1	31
-33	-1843	-536	310	31
-17	-679	-186	154	31
-242	756	71	34	31
21	553	1	57	31
97	-400	35	-144	31
45	-1209	-79	-121	31
19	-1491	-68	-222	31
69	-800	44	-335	31
238	-79	89	-302	31
73	262	14	-4	31
24	387	-35	99	31
78	281	-5	-175	31
-47	265	-77	82	31
-22	561	99	165	31
-68	735	447	71	31
-86	331	543	139	31
-35	-248	362	147	31
-52	-713	88	389	31
-7	-444	-220	272	31
-34	131	-300	-9	31
-165	134	-91	-104	31
-100	158	50	-109	31
-5	105	92	31	31
119	31	98	-204	31
245	119	131	-628	31
145	169	199	-770	31
112	182	134	-289	31
61	99	-86	-100	31
78	117	-114	-325	31
4	138	-7	319	31
-118	117	38	427	31
-70	154	432	21	31
-27	237	731	566	31
64	239	663	730	31
-14	135	272	107	31
-56	4	-450	-99	31
-37	-171	-612	228	31
-51	-148	-849	505	31
-39	-29	-1415	-91	31
-24	-4	-1239	-252	31
-6	30	-671	-103	31
-53	27	-282	-489	31
16	7	-27	-106	31
42	46	287	99	31
52	77	478	49	31
64	135	448	-92	31
49	360	469	-77	31
164	460	606	-18	31
72	118	669	-100	31
-97	-250	489	44	31
38	-393	422	-12	31
214	-353	327	-21	31
-186	-146	398	-197	31
-375	-31	867	-91	31
122	-1	809	184	31
9	-210	383	250	31
1	-347	-400	308	31
123	42	-1296	266	31
-41	-5	-1565	-44	31
95	-240	-1300	-173	31
11	16	-864	103	31
7	533	-668	-27	31
53	967	-221	-367	31
-26	531	100	-556	31
-64	245	472	-347	31
-112	4	630	86	31
-101	-837	-67	101	31
-44	-764	-624	119	31
-64	104	-532	440	31
-168	440	159	216	31
-12	457	608	157	31
56	1148	934	206	31
-62	827	1072	-54	31
16	-671	832	71	31
37	-1200	480	-76	31
8	-1444	-92	-77	31
59	-1314	-307	-137	31
69	-187	-312	-184	31
139	702	-304	15	31
200	952	-112	-26	31
37	631	340	-15	31
-74	-644	678	4	31
-72	-1565	552	32	31
-102	-559	432	106	31
-51	986	156	175	31
-5	1366	-156	107	31
-57	769	-267	69	31
-26	-6	-226	32	31
106	-653	-140	-55	31
-34	-841	-284	-124	31
-163	-664	-426	-174	31
35	-737	-603	277	31
290	-498	-601	517	31
239	-123	-359	-148	31
60	579	-132	-509	31
116	1349	-101	-373	31
39	1665	31	-302	31
-184	1653	439	-58	31
-220	147	395	-52	31
-129	-1274	198	-107	31
-44	-1475	49	132	31
39	-837	-32	357	31
121	365	-191	251	31
124	338	-284	-81	31
117	-644	120	-28	31
147	-1248	194	81	31
115	-897	170	76	31
148	-149	207	89	31
167	286	170	116	31
46	646	100	84	31
-31	589	70	4	31
-79	325	438	-41	31
-111	66	545	-118	31
-112	-101	214	-213	31
-124	87	-229	-295	31
-71	219	-598	24	31
-25	196	-648	697	31
-12	212	-522	767	31
-34	225	-408	-65	31
-113	194	-243	-225	31
-118	177	-74	105	31
-44	249	-5	-199	31
-11	424	-106	-522	31
-17	414	-261	-617	31
64	206	-158	-261	31
253	72	-11	-39	31
208	-34	225	456	31
-39	-32	349	1242	31
-91	-44	210	665	31
-191	-288	506	-572	31
-180	-479	428	-1367	31
-57	-278	77	-1370	31
-34	-31	-44	-61	31
76	19	-255	1249	31
58	95	-73	907	31
-4	81	296	42	31
-59	170	595	-292	31
-39	280	426	-414	31
53	204	2	-79	31
63	-27	-50	387	31
56	-378	186	307	31
-22	-303	-13	27	31
-56	-139	-487	-8	31
23	-162	-423	-2	31
114	-15	-410	94	31
19	201	-508	116	31
-121	475	-383	-42	31
-69	280	-263	-1	31
23	-204	-102	69	31
34	-475	270	69	31
-76	-790	495	-104	31
-112	-340	435	-107	31
-67	323	436	-24	31
-76	187	415	-91	31
-31	100	398	-90	31
22	27	136	-37	31
44	250	-299	15	31
77	637	-372	-143	31
134	609	-265	-267	31
111	1113	74	-154	31
26	1641	520	583	31
102	1274	590	884	31
66	460	23	188	31
-221	-1078	-610	-39	31
-251	-2517	-771	-297	31
-221	-1944	-712	-508	31
-211	-727	-459	-442	31
-26	-565	37	-436	31
-16	-549	427	-73	31
76	-633	235	27	31
159	-633	-116	-71	31
104	-44	-428	-56	31
112	561	-732	-14	31
65	1237	-507	57	31
134	1076	-33	105	31
149	-46	113	199	31
93	-754	262	260	31
215	-596	615	146	31
184	-70	868	10	31
94	308	673	-29	31
-1	710	134	-191	31
-227	628	175	-166	31
-310	26	377	-280	31
-290	-724	-18	-206	31
-167	-940	180	345	31
17	-397	623	-301	31
104	41	-27	-93	31
96	258	-803	1096	31
22	461	-292	784	31
28	701	180	250	31
93	844	-352	151	31
12	877	-104	570	31
30	606	42	730	31
40	91	-708	216	31
-64	-397	-511	-428	31
-46	-639	345	-409	31
-13	-353	783	-127	31
79	-135	620	-374	31
161	-25	89	-881	31
119	132	-419	-1133	31
-63	55	-905	-280	31
-245	-54	-957	99	31
-253	-132	-175	-99	31
-161	-107	469	120	31
-42	-78	701	-122	31
67	-82	1633	-612	31
191	36	1950	-533	31
268	107	1376	385	31
220	54	1010	1294	31
163	24	-403	1854	31
62	82	-1822	873	31
-52	87	-2142	-715	31
-19	-2	-1287	-899	31
2	-29	-816	-721	31
7	-14	-1182	-459	31
-20	-19	-493	-245	31
-56	-12	632	96	31
-41	3	857	-125	31
-206	126	-498	-752	31
-363	350	-163	-1121	31
-336	449	615	-1009	31
-261	506	-250	617	31
-178	453	707	1296	31
-10	-172	2178	9	31
194	-605	3035	-743	31
305	-569	2429	18	31
297	-658	874	1169	31
260	-491	-717	1276	31
176	-320	-3498	872	31
-41	-41	-4000	1973	31
5	453	-3544	2449	31
41	864	-2261	240	31
-89	1061	-1330	-1243	31
16	880	270	-1840	31
66	288	1451	-1569	31
28	-794	1814	-891	31
-171	-1094	1919	-593	31
-393	-798	1189	583	31
-200	-761	769	500	31
161	-321	932	-543	31
294	-53	239	-412	31
169	-161	-116	536	31
195	81	563	658	31
279	542	1315	119	31
152	659	1724	-912	31
58	234	942	-1158	31
-60	-443	-64	651	31
-132	-935	-741	1327	31
-217	-181	-1050	-863	31
-207	1115	-826	-2025	31
-92	1134	-278	81	31
-97	286	372	1230	31
-71	-989	-133	906	31
-162	-1265	-1916	-206	31
-323	-266	-3530	434	31
-362	519	-1468	1617	31
-271	1081	1652	-547	31
34	687	2419	-814	31
383	-6	1821	-125	31
461	-681	-267	-268	31
530	-1077	-1593	143	31
538	-478	-1294	750	31
251	-331	-587	1391	31
-12	-27	113	154	31
-195	769	906	487	31
-126	1034	-408	1311	31
69	1239	-1456	120	31
52	1387	948	-631	31
-66	878	2396	-1386	31
-433	-50	1617	-1311	31
-616	-925	377	-908	31
-398	-1682	-207	-798	31
-12	-1808	-199	-711	31
494	-1114	487	-1079	31
677	-260	1351	-932	31
555	96	588	19	31
26	-104	-147	234	31
-118	-59	141	461	31
252	241	1406	1718	31
-164	513	1592	891	31
-601	1078	-546	579	31
-553	1351	-2169	1425	31
-350	990	-3412	1392	31
-9	194	-2329	354	31
91	-1199	-1597	-1181	31
200	-1761	-3060	-1263	31
433	-1061	-1177	-2041	31
414	-843	1631	-1937	31
375	-393	3404	-372	31
284	714	2648	2979	31
106	894	723	4000	31
170	1107	794	1901	31
89	1534	122	-866	31
90	769	-186	-2321	31
89	-317	188	-2178	31
-288	-631	-177	-1542	31
-171	-242	-928	-1481	31
3	196	-503	-166	31
-240	307	696	812	31
-233	-85	383	938	31
107	-427	-1368	-52	31
325	6	-1967	279	31
209	312	-902	2436	31
-22	159	510	1672	31
-211	312	1620	-1098	31
6	926	1416	-2282	31
191	1477	1015	-1938	31
222	1040	-76	-1976	31
181	-539	-959	-698	31
15	-1521	-1925	1256	31
27	-829	-1062	916	31
-245	-92	1613	2791	31
-449	258	1470	3176	31
-731	169	1704	-1133	31
-550	-522	715	-2452	31
357	-1136	-983	-1839	31
340	-1252	-437	-663	31
255	-509	-924	490	31
183	-293	-721	1349	31
-330	-405	246	689	31
-801	-172	1279	-2338	31
-1136	147	702	-2066	31
-653	343	-258	-563	31
-22	-69	356	2160	31
375	-135	58	3966	31
631	16	62	1375	31
424	143	-340	-9	31
-119	319	387	-789	31
-442	387	413	-1439	31
-94	417	-934	-294	31
263	239	-914	592	31
197	311	-1185	56	31
229	549	-659	1110	31
388	585	433	1068	31
-75	355	486	-1520	31
-260	6	-66	-2106	31
95	-544	1676	-3069	31
42	-970	3023	-1699	31
-138	-529	957	507	31
-275	69	-2113	2468	31
71	286	-3340	3474	31
435	267	-3206	659	31
289	139	-1324	-30	31
114	129	1624	-52	31
26	24	1258	-1321	31
-92	-142	1449	-2510	31
-56	-150	1689	-2228	31
27	-6	652	178	31
-64	214	333	2566	31
66	214	-232	2910	31
-74	22	-652	1084	31
-286	-139	-1192	-868	31
-104	-96	-1757	-1119	31
74	74	-1812	-235	31
-11	16	-170	257	31
-87	-22	550	728	31
35	59	468	290	31
52	-40	858	171	31
107	-4	674	193	31
2	50	814	-996	31
-89	-48	2304	-1595	31
-109	39	2562	-2393	31
-121	-86	-1051	-1368	31
-49	-263	-3928	915	31
-77	-137	-2441	1684	31
-97	132	1325	2412	31
-118	363	1606	2255	31
-143	192	984	350	31
-150	-3	652	-376	31
-44	-147	-539	136	31
-305	-350	-555	-1150	31
-487	-406	-1042	-1113	31
222	-219	244	-1038	31
268	44	283	-1657	31
-33	116	-1722	-290	31
288	446	-2499	421	31
270	475	-244	1685	31
315	210	1845	1946	31
272	83	1488	637	31
109	-145	1353	-473	31
87	-64	239	-871	31
-31	-38	698	-587	31
-72	-19	1006	-437	31
-70	34	-99	-260	31
37	-147	-1035	-956	31
82	-240	-1004	-987	31
124	-124	12	116	31
104	185	-1100	1664	31
15	207	-915	1938	31
13	115	1140	574	31
9	142	1312	31	31
-2	81	156	-465	31
-56	79	-1042	-1281	31
-36	12	-513	-853	31
51	-13	640	-295	31
44	-22	891	76	31
-29	-41	1436	461	31
-60	-82	265	935	31
36	-204	-1494	647	31
47	-214	-511	-407	31
-228	-170	917	-286	31
-322	11	458	-751	31
-236	105	-207	-303	31
-129	22	1182	61	31
44	55	783	-600	31
-17	89	-277	-869	31
-87	-5	-282	-324	31
146	-127	-1311	289	31
366	-194	-315	-795	31
265	-128	1063	771	31
225	201	-15	1527	31
345	536	-1682	3423	31
319	528	-1667	4000	31
129	168	-344	-708	31
-17	-355	-263	-2626	31
-56	-506	-1619	-2566	31
-120	-410	-1055	-675	31
-162	-642	433	-515	31
-164	-409	730	-878	31
-90	-21	378	414	31
-60	67	-983	-860	31
-84	588	-1162	-427	31
-27	564	1446	103	31
33	132	3326	-184	31
34	114	1913	422	31
54	51	89	916	31
24	-52	-174	735	31
-127	-79	247	-500	31
41	164	1018	-1247	31
204	373	729	-512	31
34	210	-374	2479	31
255	-428	-245	3265	31
330	-848	-671	319	31
171	-139	-2391	-2280	31
287	129	-2201	-1525	31
101	-197	908	-465	31
-64	59	2007	1298	31
-82	253	664	2532	31
-45	79	232	-2391	31
-64	-142	1036	-2938	31
-169	92	867	810	31
-96	747	-1348	2890	31
-113	903	-3141	1754	31
-105	375	-3167	-1301	31
-4	-142	-1140	-789	31
212	-506	919	-398	31
364	-578	1553	-367	31
370	-502	96	-412	31
254	-536	-172	-506	31
-144	126	1588	-415	31
-252	681	1718	-415	31
42	620	911	-617	31
249	543	88	-123	31
290	38	1112	524	31
284	-160	1410	-117	31
204	-303	-146	269	31
-12	-784	-833	1220	31
-77	-599	-1942	1008	31
-41	-194	-1470	636	31
-115	24	787	-357	31
-154	2	1785	-1330	31
-189	-77	1452	-978	31
-234	16	301	-1950	31
-245	-201	-904	-725	31
-135	-102	-1374	2679	31
-41	398	-783	2759	31
-47	493	-684	728	31
-36	250	-1150	1774	31
41	20	-1559	563	31
161	37	-1682	-1825	31
-27	13	116	-1479	31
-134	-27	1446	-2214	31
145	-35	691	-237	31
401	-22	25	-723	31
322	61	480	-1180	31
147	-67	534	925	31
263	-7	119	526	31
202	329	277	-279	31
7	491	458	762	31
-107	349	1021	1182	31
-449	-36	566	-512	31
-634	-450	-26	1332	31
-427	-503	196	1939	31
-287	-111	-67	-177	31
-303	5	189	-87	31
-334	-46	904	-780	31
-387	-9	1206	-1114	31
-183	-70	1336	-853	31
31	-6	469	-950	31
-15	17	-1750	-380	31
-64	30	-2048	620	31
-107	12	-551	1112	31
104	-13	-502	49	31
293	109	-200	770	31
212	289	992	2301	31
285	317	1	336	31
390	119	-1339	-1848	31
187	-121	-407	-1339	31
-52	-450	136	-1322	31
-42	-364	-644	-394	31
-52	-62	-679	-555	31
36	-31	-4	-1847	31
149	263	267	-1484	31
-2	410	-1258	-926	31
-109	158	-1993	2903	31
-75	-116	-463	4000	31
-45	-518	592	1661	31
48	-406	1479	-1107	31
132	106	846	-1501	31
-25	244	1425	-1034	31
-87	192	3274	-521	31
159	-18	2633	76	31
200	9	942	-103	31
84	34	-646	1071	31
-44	-340	-1299	1886	31
-212	-122	-2973	389	31
-176	306	-2249	-1219	31
36	209	-580	-559	31
-20	199	-1504	-812	31
-220	327	-633	-886	31
162	262	615	396	31
327	6	1624	731	31
-74	-155	1635	554	31
-154	-311	380	237	31
-92	-320	326	1106	31
-13	-199	392	327	31
20	-42	264	-1271	31
0	169	197	-818	31
-91	-189	750	-1151	31
-225	-400	776	-893	31
-210	-114	398	500	31
-267	-12	-83	1349	31
-159	105	-1568	2623	31
69	321	-1828	1066	31
102	353	-1067	-602	31
149	286	497	-402	31
207	248	214	-530	31
270	62	-230	467	31
237	81	478	-828	31
176	165	-284	-1187	31
288	-72	-369	-623	31
279	-268	-410	-1443	31
52	-473	338	-1011	31
-55	-480	961	-1127	31
51	-122	737	352	31
-7	68	17	2286	31
-194	122	-1097	1456	31
-161	52	-651	182	31
-106	-148	-280	-337	31
-343	-97	-24	-979	31
-334	175	453	-600	31
-116	421	706	-457	31
-73	340	413	421	31
-59	72	-167	2278	31
-94	-116	80	805	31
-40	-185	372	-14	31
-65	-15	362	266	31
19	234	134	-430	31
291	54	703	-221	31
311	-224	1922	-1003	31
247	-154	1909	-1569	31
204	-228	49	-308	31
119	-74	-1838	1732	31
-45	127	-2985	2677	31
-279	137	-3098	1155	31
-106	185	-1333	-756	31
104	4	123	-828	31
-22	139	789	-1552	31
-150	142	1676	-2486	31
-354	100	1451	-617	31
-234	515	-398	1993	31
-213	653	-2036	3523	31
-499	554	-2231	699	31
-159	53	-1494	-2236	31
151	-854	418	-839	31
152	-1205	2134	146	31
385	-662	1759	-167	31
482	-52	1298	-269	31
409	227	1366	-277	31
254	225	969	-802	31
54	4	989	-1466	31
-90	-101	1584	-1647	31
-88	-149	1599	-820	31
-68	-41	-227	1539	31
-199	54	-2281	3031	31
-92	50	-2449	1208	31
-34	189	-1759	495	31
-119	186	-1293	639	31
-67	91	-942	-550	31
56	31	-181	-440	31
136	-6	681	-513	31
3	7	1592	89	31
7	-11	2136	613	31
54	26	1195	-480	31
39	76	-33	-971	31
51	144	-623	233	31
-9	208	-973	1071	31
-54	-118	-1637	438	31
-71	-344	-1786	-516	31
-33	84	-1813	-1499	31
-74	395	-869	-979	31
-131	400	1805	243	31
-65	368	2845	-224	31
-81	225	1939	-582	31
-57	-106	433	964	31
96	-649	496	1879	31
118	-871	987	1377	31
184	-628	-772	-42	31
170	-244	-1712	-1487	31
-73	-112	-625	-568	31
-12	-31	61	-242	31
88	290	-116	-493	31
-156	439	-326	-515	31
-279	459	-1148	-444	31
-142	109	-2168	413	31
-64	-222	-681	842	31
-87	-132	1692	1196	31
-41	2	1752	-565	31
71	263	1198	-2019	31
315	116	894	-1832	31
339	-355	769	-584	31
-19	-342	397	2306	31
-93	81	386	3139	31
-37	477	-11	1325	31
-91	345	-1172	-462	31
-24	-131	-1417	-566	31
7	-443	-1059	178	31
-13	-512	-387	547	31
-16	-201	174	66	31
62	-17	491	-410	31
84	209	303	-398	31
140	592	-293	-719	31
119	357	-1471	-811	31
-16	112	-1785	-504	31
-59	342	161	-948	31
-68	418	3609	-1245	31
67	105	4000	-462	31
110	-229	1019	1172	31
19	-545	-2251	2857	31
-50	-406	-2013	1422	31
-26	56	650	-396	31
-196	47	961	235	31
-472	-7	-373	-78	31
-316	-318	-1150	-288	31
-119	-591	-2526	-491	31
292	-51	-1820	-1034	31
643	677	-1561	-1024	31
417	838	-628	-892	31
332	477	559	303	31
272	-84	1474	833	31
119	-611	1772	149	31
16	-384	271	629	31
-86	-39	-116	662	31
-87	-66	492	607	31
-39	-24	1252	1101	31
-10	-82	743	34	31
-101	-14	155	-823	31
-74	37	-6	-1284	31
-40	16	296	-1251	31
-62	13	87	-918	31
-21	-12	-76	-588	31
-77	26	887	-116	31
-124	-37	526	1791	31
-142	-36	-789	3285	31
-183	104	-1488	72	31
-140	244	-1197	-1685	31
-60	371	-972	-502	31
-44	503	-761	-527	31
-29	385	-257	282	31
81	-105	-179	166	31
89	-312	-376	-230	31
-32	11	638	-135	31
82	-63	1521	14	31
125	-522	675	359	31
59	-430	24	-327	31
191	-162	-110	-172	31
200	-52	-111	-290	31
-41	74	-153	-255	31
-212	27	-209	44	31
-154	50	111	-615	31
-164	250	1159	-1653	31
-126	359	1676	-2404	31
-99	323	862	-1568	31
-141	119	217	1161	31
-31	-335	6	4000	31
-39	-613	-1526	3966	31
-66	-394	-2591	-315	31
27	-126	-601	407	31
69	64	398	-232	31
31	97	-194	-1421	31
119	148	127	-277	31
239	269	-215	-570	31
158	270	-1334	-575	31
99	107	-610	-786	31
75	16	1090	-231	31
39	211	1310	114	31
19	-187	844	-152	31
-13	-539	301	208	31
-191	-240	32	-74	31
-274	-165	556	-7	31
-93	245	979	-210	31
-104	666	1102	-42	31
-231	272	362	251	31
-192	-144	-724	344	31
128	-277	-1460	339	31
324	-383	-1552	-628	31
230	-197	-250	-1042	31
319	4	520	-150	31
317	-12	195	720	31
27	101	-413	19	31
-181	97	-676	-648	31
-196	124	-686	-720	31
-182	473	-255	-520	31
-106	795	539	-316	31
-3	647	830	-654	31
9	136	-55	-299	31
40	-574	-450	119	31
87	-1105	581	1187	31
37	-290	840	1556	31
47	716	333	1489	31
59	695	-959	1470	31
-116	170	-1199	-84	31
-191	-685	-413	988	31
63	-774	205	2061	31
165	-430	1	-91	31
-18	-240	42	-790	31
81	255	1598	-730	31
9	451	1110	-832	31
-133	328	-86	-527	31
-64	-148	-208	-515	31
-112	-531	422	-218	31
-111	-403	633	-379	31
-106	-224	-158	-217	31
121	37	-385	-119	31
141	127	-342	-421	31
46	241	167	-265	31
136	343	137	-340	31
34	134	3	-267	31
81	-234	69	6	31
269	-287	-119	249	31
227	66	-132	388	31
63	112	-56	62	31
-2	88	205	-155	31
-59	95	-12	-362	31
-42	70	-495	-396	31
-149	89	-778	-102	31
-274	61	44	342	31
-217	109	485	911	31
-296	104	-310	570	31
-257	174	-447	70	31
-197	232	-178	34	31
-130	158	146	-202	31
94	42	157	-314	31
171	-84	175	-306	31
111	-179	424	-277	31
90	-160	988	-39	31
31	157	207	579	31
-4	476	-2169	422	31
112	637	-2060	-300	31
126	687	-837	-289	31
92	351	-724	-218	31
39	-166	182	-369	31
-34	-681	2388	-425	31
-117	-962	3333	525	31
-127	-593	1283	1541	31
12	-152	-605	-283	31
-44	182	-1035	-1804	31
-49	411	-604	690	31
-1	77	-346	2046	31
-19	-338	-616	-69	31
3	-423	-134	-677	31
-52	-286	364	1	31
46	-350	310	-187	31
89	-629	89	-152	31
12	-402	507	-62	31
82	28	668	314	31
240	152	596	236	31
326	204	457	-1014	31
174	169	-1679	-1903	31
72	152	-3238	-397	31
6	205	-726	1430	31
-104	120	1920	1100	31
-48	125	1203	1324	31
-19	143	699	847	31
-78	92	624	-632	31
-167	97	-192	-210	31
-117	31	-639	-93	31
-46	28	-1558	-385	31
-86	67	-2030	-568	31
-12	69	-941	-588	31
45	127	1376	27	31
151	107	1852	-102	31
136	80	867	-259	31
-35	253	530	219	31
-79	482	85	290	31
-54	400	179	-36	31
-34	104	67	-38	31
-61	-134	179	-182	31
-77	-436	205	-115	31
-119	-429	101	-277	31
-121	-125	-5	-578	31
-34	-40	-458	-106	31
33	4	-69	410	31
69	14	-170	347	31
103	-57	-575	186	31
134	-42	-142	482	31
144	-47	392	568	31
119	-49	503	555	31
76	-2	184	550	31
89	24	46	-246	31
59	59	61	-1150	31
20	66	-72	-469	31
36	83	-528	-250	31
-7	205	-641	-685	31
-27	475	6	-131	31
-11	767	300	648	31
-114	751	-492	715	31
-205	259	-806	87	31
-139	-656	-594	209	31
-74	-1236	102	36	31
-39	-839	974	-19	31
17	-189	618	151	31
141	359	195	95	31
222	334	84	114	31
166	-279	357	-140	31
24	-504	410	7	31
47	-518	-12	-86	31
209	-207	-127	-97	31
107	27	-56	-21	31
-44	-33	-59	-103	31
-168	105	-230	-93	31
-151	111	-449	-123	31
-29	165	-126	-44	31
-108	89	848	-22	31
-91	57	628	169	31
-17	162	-519	127	31
14	135	-568	-30	31
69	308	196	11	31
114	411	699	8	31
79	307	728	-59	31
72	104	439	-593	31
117	22	66	-820	31
26	172	-210	114	31
-6	321	-529	1033	31
17	174	-640	503	31
-21	-260	-1124	-647	31
-51	-435	-849	3	31
-76	-438	174	916	31
-92	-330	72	384	31
-122	47	167	-393	31
-62	327	62	-690	31
12	120	551	-414	31
47	-494	752	-146	31
68	-682	-356	786	31
54	-213	-701	1407	31
73	124	-1156	808	31
101	107	-1081	-369	31
89	137	-681	-1075	31
11	133	-46	-886	31
-4	81	254	-383	31
22	82	390	-27	31
-41	51	914	-177	31
-90	58	1552	245	31
-69	95	1627	724	31
-47	149	467	389	31
-86	232	192	-823	31
-156	341	-272	-1194	31
-56	270	-296	-455	31
59	69	-104	-107	31
-37	-139	-129	433	31
-27	-385	66	701	31
71	-281	-89	812	31
89	-86	-42	390	31
-10	-92	-463	-44	31
-34	4	-161	71	31
90	224	14	-101	31
38	440	-129	-101	31
19	315	-215	-120	31
-4	1	-277	84	31
-115	-306	44	212	31
-160	-531	49	-208	31
-144	-290	395	-226	31
-78	-51	634	-103	31
-94	57	382	129	31
-56	454	72	329	31
-17	1002	-76	-14	31
25	1472	-383	123	31
97	1343	-805	460	31
54	-75	-819	170	31
131	-1425	-433	21	31
154	-998	-137	140	31
109	-662	112	60	31
51	-886	134	-107	31
-103	-613	-602	-469	31
17	-365	-949	-908	31
79	117	-533	-791	31
-6	588	144	237	31
-44	479	700	561	31
-151	-526	992	-42	31
-81	-882	576	137	31
-111	72	23	327	31
-93	475	69	282	31
116	165	433	99	31
7	-538	654	8	31
-17	-976	338	15	31
109	-639	257	-25	31
111	44	296	4	31
104	344	187	-136	31
127	229	29	-72	31
95	97	-46	-124	31
20	-37	-57	-119	31
49	245	-119	-94	31
-23	440	-95	-44	31
-77	327	-47	41	31
82	346	-9	-34	31
149	306	-40	-27	31
-106	418	-16	-82	31
-179	542	-24	-82	31
62	372	12	-79	31
39	-36	124	-79	31
2	-159	145	-38	31
101	234	47	66	31
103	189	-202	191	31
131	-51	-413	36	31
57	-124	-329	-156	31
-45	-209	-169	266	31
110	-36	-122	583	31
162	-11	27	220	31
75	1	30	51	31
-66	8	-75	-87	31
-163	-84	-180	-484	31
-80	12	-207	-936	31
-200	41	-41	-1013	31
-136	89	62	-715	31
-31	110	141	-235	31
-119	-172	175	281	31
16	-385	52	635	31
27	-75	-11	1006	31
97	179	270	1346	31
159	15	275	2018	31
114	-55	-97	801	31
134	16	-172	-651	31
46	100	-214	-243	31
9	128	-245	-514	31
-26	30	-192	-379	31
-28	-128	97	-615	31
-26	-217	472	-660	31
-1	-175	475	-361	31
-32	-63	320	-848	31
-172	-49	-185	-888	31
-32	-101	-757	-346	31
71	-42	-540	803	31
-16	-7	-182	1355	31
17	39	-4	533	31
22	94	93	269	31
66	93	-713	599	31
193	52	-995	-281	31
129	11	416	-255	31
-7	59	957	171	31
24	86	793	-348	31
-6	239	540	-552	31
-49	545	-428	-51	31
-82	817	97	295	31
-158	880	477	-48	31
-118	210	252	-132	31
-142	-677	112	16	31
-139	-754	-355	751	31
-110	-664	-197	1023	31
-152	-945	-310	-6	31
-67	-963	2	-344	31
9	-648	239	-161	31
-11	-253	403	-533	31
64	-9	525	-571	31
68	23	255	-454	31
-8	98	149	-467	31
42	455	-376	-415	31
7	998	-774	-154	31
-29	955	-782	425	31
1	212	-144	588	31
-1	-438	583	139	31
-56	-445	361	-50	31
-133	285	-43	-139	31
-86	1092	-189	-7	31
-54	1438	-289	354	31
-70	1236	-148	-22	31
-110	346	126	-349	31
-71	-599	483	-214	31
34	-1516	127	304	31
57	-1977	-1067	358	31
52	-1216	-1281	102	31
42	-216	-38	237	31
102	-2	641	72	31
123	-370	575	-17	31
156	-170	508	-156	31
179	265	-231	-23	31
43	434	-675	196	31
-190	500	-502	7	31
-302	322	288	30	31
-8	406	743	123	31
115	287	608	104	31
-6	32	674	7	31
-7	44	461	-121	31
51	-254	284	-185	31
159	-150	164	-152	31
32	410	51	-59	31
38	237	-121	-111	31
81	-185	-96	-343	31
124	-214	-67	-424	31
189	40	121	-18	31
97	604	697	344	31
30	436	783	85	31
-132	-511	200	467	31
-14	-1241	-586	830	31
-44	-703	-1285	112	31
-22	571	-1049	14	31
220	510	356	164	31
-98	493	768	199	31
-315	875	37	29	31
-161	1456	-420	-196	31
52	2159	-874	-209	31
120	1188	-784	-735	31
44	-800	-152	-669	31
-29	-2748	-8	-99	31
40	-2306	-192	75	31
166	143	-216	179	31
-91	1263	127	156	31
-6	836	312	-129	31
177	-822	57	-122	31
39	-2150	-175	-133	31
32	-1902	-239	-69	31
-96	-780	181	123	31
-132	220	806	100	31
-74	293	635	265	31
34	219	287	134	31
-91	-2	159	50	31
-259	-537	-11	27	31
-59	-175	-25	-65	31
25	494	-103	90	31
137	692	-239	48	31
91	645	-233	-69	31
-24	339	103	-42	31
96	239	286	284	31
94	408	278	247	31
75	219	428	-64	31
102	-114	439	22	31
-33	-361	97	6	31
-202	-404	-56	-250	31
-128	122	-119	-274	31
-134	490	-1115	-135	31
-147	508	-1652	-62	31
23	408	-872	188	31
76	129	248	151	31
64	148	653	96	31
39	613	607	77	31
-52	454	514	-114	31
6	-4	-86	-33	31
156	107	-47	-88	31
99	-236	134	-142	31
50	-461	305	-84	31
33	-268	670	-139	31
64	347	949	-154	31
-122	1191	969	103	31
-345	598	151	169	31
-98	-786	-610	-117	31
-13	-881	-821	57	31
25	271	-591	120	31
184	935	-496	87	31
-65	1372	-352	340	31
-117	1800	-202	414	31
141	1121	-433	300	31
-63	-614	-355	-169	31
-435	-2195	-280	-437	31
-342	-3110	122	-223	31
145	-3136	856	26	31
370	-1779	972	344	31
357	-729	490	238	31
307	-187	-122	-157	31
176	485	-656	-115	31
97	1135	-648	-245	31
8	1587	-205	-273	31
81	989	0	85	31
20	-99	52	117	31
-117	-1268	177	-115	31
-22	-1530	872	-231	31
10	-704	1259	-212	31
129	40	877	-61	31
34	508	455	89	31
-135	435	-100	32	31
7	329	-516	156	31
197	378	-843	298	31
116	317	-589	364	31
-27	809	-149	370	31
123	1382	-604	232	31
-204	884	-1342	147	31
-625	95	-1702	-91	31
-360	-435	-1134	-259	31
-329	-119	-91	-534	31
-490	1310	542	-565	31
25	2212	568	-25	31
631	2095	566	442	31
552	1033	673	671	31
-102	43	544	722	31
-250	603	345	776	31
76	452	93	87	31
144	-1574	7	-713	31
99	-3187	-89	-923	31
109	-3713	91	-795	31
114	-2032	320	-517	31
-12	161	485	-393	31
81	323	1100	-46	31
158	51	1044	-59	31
96	-645	819	8	31
17	-935	1207	379	31
122	-497	724	352	31
-86	-57	-315	-119	31
-640	757	-511	-504	31
-129	897	-632	-157	31
147	582	-586	682	31
-102	433	-649	911	31
-53	530	-1084	287	31
-78	879	-1247	307	31
129	1281	-1626	401	31
59	1446	-997	146	31
-93	969	248	128	31
154	167	668	-79	31
234	-66	513	-339	31
-7	1693	296	-642	31
-383	3910	-77	-770	31
-759	3171	-569	-549	31
-641	117	-683	-131	31
-557	-3141	-663	-147	31
-416	-4000	-264	-11	31
-185	-4000	43	1004	31
-51	-2556	492	1075	31
748	-618	878	334	31
412	323	778	120	31
67	1722	854	107	31
879	3442	953	121	31
931	2884	977	48	31
394	226	503	26	31
38	-2645	73	-18	31
220	-3435	-247	-730	31
393	-2309	-82	-1053	31
392	-1515	575	-218	31
-32	-875	748	-91	31
-284	-298	479	-98	31
-177	318	-335	244	31
-189	598	-1086	-111	31
-227	771	-1298	36	31
-250	880	-804	319	31
-268	511	-36	408	31
-294	455	645	177	31
34	165	426	-214	31
64	109	-66	-192	31
61	117	42	-204	31
148	-31	-310	-245	31
234	471	-271	-270	31
198	1146	-245	-139	31
94	1233	-380	-141	31
191	551	-264	588	31
46	150	-578	1316	31
-107	17	-732	730	31
-320	228	-794	-108	31
-228	453	-457	-269	31
-284	155	235	-449	31
-482	103	235	-816	31
-249	-61	786	-435	31
285	-352	1411	93	31
415	-611	943	241	31
-214	-574	537	-515	31
-141	-20	-330	-683	31
122	297	-784	-414	31
-47	252	-521	-728	31
-281	101	-601	132	31
-398	82	-204	999	31
-222	283	609	959	31
101	318	799	970	31
287	157	20	755	31
97	-51	-585	-59	31
156	-227	-661	-32	31
215	-124	-535	695	31
141	-81	-109	144	31
-64	-88	603	-252	31
-132	127	1228	-31	31
165	217	1409	-358	31
21	187	1094	-137	31
-384	107	658	64	31
-189	240	727	-162	31
304	473	842	-306	31
-243	426	148	-52	31
-606	944	-881	381	31
-104	1024	-1413	119	31
-330	-837	-2059	-82	31
-428	-2114	-2117	-66	31
63	-1795	-1401	-259	31
152	-1160	-385	-265	31
403	-256	333	-101	31
737	271	322	-77	31
330	142	588	-262	31
314	-53	629	-389	31
1096	-101	454	-184	31
1195	-157	442	-404	31
321	-159	308	-753	31
344	7	-92	206	31
585	66	-347	1506	31
-54	-174	-234	1047	31
-542	-456	-477	-236	31
-748	-302	-482	-352	31
-354	289	184	41	31
-703	608	464	343	31
-620	408	445	349	31
575	177	592	-151	31
213	79	355	-542	31
-42	22	175	-392	31
585	142	411	-238	31
877	434	759	-132	31
978	590	826	101	31
510	415	393	-142	31
-96	335	296	-327	31
-131	337	403	-229	31
14	57	74	-176	31
-197	-6	-6	-31	31
-163	172	15	82	31
-67	388	-856	148	31
-380	664	-1532	385	31
-374	1218	-952	387	31
-260	2065	422	171	31
-280	1482	1100	-351	31
-159	-347	695	-787	31
7	-2108	-149	-26	31
-29	-3258	-693	839	31
-97	-2299	-515	700	31
-299	-1049	-1	65	31
-248	-633	748	164	31
60	-39	808	172	31
-335	25	533	-326	31
-963	-135	89	-59	31
-274	-357	-697	-110	31
490	-329	-557	-239	31
-72	-127	-669	-98	31
208	-19	-1359	34	31
435	416	-1192	222	31
37	682	-1005	414	31
-194	699	-884	665	31
-453	561	-377	563	31
54	573	-90	284	31
312	667	-165	-206	31
252	422	-472	-694	31
163	436	-437	-1001	31
-74	487	-432	-661	31
-643	210	-423	117	31
-1082	79	287	278	31
-672	-336	994	-188	31
-312	-685	1080	-478	31
106	-781	1661	-554	31
793	-878	3723	-627	31
1240	-608	4000	-237	31
1068	-402	4000	-109	31
298	-60	1598	-166	31
-377	277	-1985	799	31
-596	505	-4000	2109	31
-689	801	-4000	1540	31
-1610	946	-3511	404	31
-2133	778	-1388	102	31
-663	340	-471	-44	31
211	76	167	327	31
510	-171	239	159	31
684	-179	1	-166	31
962	-107	0	-290	31
1546	-62	-23	-480	31
179	172	574	-610	31
-624	114	980	-980	31
22	-132	916	-693	31
546	-67	956	26	31
416	140	964	290	31
-114	69	921	-157	31
-50	207	859	-355	31
433	197	809	-340	31
873	172	350	-163	31
646	709	57	576	31
380	644	19	280	31
63	-45	-622	-190	31
71	-1191	-766	-130	31
-134	-2135	-385	-176	31
-554	-1725	-495	308	31
-276	-762	-407	506	31
-213	9	-42	235	31
-17	215	94	77	31
18	97	175	-99	31
-86	230	164	39	31
-50	433	2	-61	31
-30	182	36	-399	31
210	-186	89	-314	31
280	69	-88	66	31
-92	458	-47	197	31
-290	584	25	46	31
-182	382	-202	552	31
-1034	116	-306	715	31
-931	-139	-33	114	31
383	-276	305	-33	31
259	91	214	-200	31
41	359	236	-304	31
47	227	352	86	31
89	89	65	-114	31
274	102	116	-517	31
-114	-164	486	-498	31
-106	-619	320	-607	31
66	-642	-16	-565	31
27	-251	-1	-454	31
18	159	-134	749	31
-156	417	-152	1585	31
-98	617	-136	723	31
-42	1045	-268	251	31
-318	1540	-330	-310	31
-193	970	-325	-21	31
-56	-386	-53	347	31
-84	-1417	506	-332	31
112	-1446	1160	-264	31
-7	-592	1154	-147	31
242	-247	527	-204	31
212	-411	-94	-62	31
-154	-568	-1105	148	31
17	-577	-2155	128	31
129	-15	-1717	-91	31
422	867	-982	-65	31
583	1085	-744	-19	31
505	451	-94	-3	31
42	-188	269	-64	31
-561	-297	942	-298	31
-789	-150	1346	-485	31
-608	-293	1177	-523	31
186	-377	1507	-382	31
453	-303	1165	164	31
158	24	-137	805	31
38	415	-1281	836	31
-230	443	-1689	258	31
-166	510	-1740	-41	31
-452	512	-1771	243	31
-891	671	-1070	81	31
-555	697	161	70	31
-604	172	1214	169	31
-21	-543	2235	-487	31
953	-1049	2580	-531	31
1242	-852	1895	-201	31
1041	-635	367	-172	31
670	-271	-1177	-4	31
119	376	-2872	264	31
-233	568	-3116	517	31
312	1030	-995	439	31
-803	1309	380	47	31
-1012	954	521	-343	31
628	297	343	-204	31
516	-747	152	397	31
418	-1299	134	760	31
72	-319	318	286	31
33	1132	360	-148	31
505	1073	421	-104	31
49	638	675	-542	31
29	2	616	-683	31
47	-1356	262	-606	31
-36	-1675	23	-380	31
-388	-1494	73	259	31
-523	-1285	105	285	31
-115	-455	265	25	31
49	-64	298	62	31
195	-61	227	186	31
84	124	260	-3	31
-249	287	71	-117	31
-177	400	-188	-6	31
107	262	-290	-7	31
-2	106	-154	6	31
15	-85	-8	109	31
171	-172	127	102	31
86	81	57	-7	31
41	282	16	548	31
-50	495	260	612	31
-94	598	531	64	31
-116	573	713	19	31
-202	408	736	-76	31
-106	251	739	-320	31
113	244	414	-796	31
93	11	-222	-952	31
-27	59	-857	-387	31
-77	305	-993	434	31
-131	831	-757	654	31
-197	1412	-951	404	31
-398	618	-842	495	31
41	-865	-316	-2	31
254	-1851	-331	-241	31
-518	-1475	-256	22	31
-413	-493	36	-264	31
126	136	257	-115	31
222	433	556	-2	31
262	-90	531	-179	31
163	-532	689	-233	31
73	-689	1153	-221	31
64	-322	798	-191	31
155	444	-141	-152	31
-59	1098	-491	130	31
-321	1166	-836	367	31
-111	163	-838	392	31
232	-548	31	475	31
67	-754	289	696	31
-242	-559	-288	387	31
-19	203	-812	-229	31
362	1008	-382	-406	31
513	1256	653	-465	31
456	422	675	-517	31
360	-1167	323	-375	31
-9	-2212	-423	-35	31
-238	-1442	-1740	530	31
-144	-55	-1349	187	31
-113	496	-289	-615	31
-47	453	-27	-432	31
-21	308	175	307	31
128	252	-9	948	31
152	142	184	455	31
49	164	810	-172	31
185	129	487	-312	31
346	97	246	-415	31
122	138	146	46	31
-402	164	58	372	31
-425	318	397	75	31
-53	401	505	-169	31
195	565	535	73	31
16	441	345	257	31
-39	-96	168	224	31
2	-520	95	12	31
-153	-762	69	-84	31
-64	-631	164	-56	31
-232	-370	398	-81	31
-245	-200	686	-19	31
-139	52	857	-57	31
-195	134	684	-162	31
-96	104	7	-333	31
20	212	-178	-138	31
155	468	-245	-53	31
127	858	-601	-65	31
173	861	-479	320	31
49	475	-506	295	31
-82	122	-1048	280	31
-174	-423	-899	362	31
-289	-500	-480	104	31
27	-76	-585	-77	31
-120	-72	-660	-400	31
-48	-127	-483	-587	31
230	86	285	-164	31
37	109	1384	49	31
-18	-111	1939	-51	31
-242	-335	1654	97	31
-119	-549	368	217	31
56	-460	-1142	279	31
-61	-265	-2058	448	31
-225	-99	-2046	417	31
-268	209	-1009	56	31
-282	549	107	-96	31
-160	840	501	-300	31
424	679	296	-502	31
426	-24	269	-250	31
392	-895	222	3	31
663	-614	238	99	31
591	654	390	175	31
222	885	320	146	31
247	84	347	-106	31
165	-1017	398	-207	31
-597	-1424	398	-153	31
-448	-733	285	-136	31
-164	-239	336	-112	31
-96	-178	266	99	31
-102	-204	66	-44	31
-488	-77	283	-314	31
-16	406	393	-30	31
357	830	127	533	31
159	948	-99	569	31
404	352	-449	-106	31
450	-479	-934	-69	31
-225	-170	-684	13	31
-430	480	-73	55	31
-104	709	171	336	31
-11	656	97	82	31
155	199	-104	-186	31
61	-120	-284	-414	31
33	-231	-410	-169	31
168	-56	-103	283	31
-187	86	478	210	31
-345	-127	620	-54	31
-210	-366	376	-109	31
-157	-375	248	-66	31
20	-95	322	-60	31
220	-78	314	-133	31
290	-84	297	-350	31
208	53	525	-515	31
130	21	1154	-641	31
-120	-88	2208	-404	31
-517	-170	2102	27	31
-93	-109	338	440	31
137	-103	-1614	981	31
99	-44	-3371	953	31
327	11	-3894	605	31
-69	-1	-3081	631	31
-16	96	-1324	292	31
-89	84	201	-380	31
-354	-13	324	-768	31
115	6	531	-520	31
379	139	472	290	31
517	216	363	172	31
394	423	300	-114	31
71	755	291	-9	31
-214	611	417	-203	31
-656	231	215	-88	31
-537	-109	269	-9	31
284	-843	107	-81	31
548	-1083	93	-204	31
270	-505	252	-67	31
-69	-125	420	21	31
-453	117	546	-52	31
-108	273	405	81	31
470	337	276	56	31
374	358	224	-15	31
9	68	355	-255	31
23	-439	327	-409	31
184	-458	172	-79	31
227	-48	-49	546	31
1	38	-167	605	31
-337	162	-220	129	31
-221	339	-155	-19	31
-46	517	302	-86	31
-182	457	390	-121	31
-322	77	237	-92	31
-518	-238	175	48	31
-478	-811	-195	235	31
92	-985	-275	210	31
151	-865	99	16	31
99	-664	215	-492	31
-393	-42	-190	-830	31
-649	502	-614	-41	31
248	853	-658	876	31
226	913	-683	579	31
224	563	-545	138	31
284	37	-202	-80	31
118	-263	222	-234	31
253	-263	302	-151	31
215	-32	267	-153	31
82	180	305	-98	31
-124	332	39	-145	31
-12	486	-12	-187	31
-37	486	64	71	31
-14	383	295	324	31
-132	832	360	28	31
-118	1324	148	-424	31
94	184	94	-246	31
-199	-1161	-23	295	31
-117	-1805	-139	497	31
63	-1640	-127	159	31
54	-862	25	19	31
26	-552	152	-73	31
203	14	287	-305	31
312	144	591	-264	31
220	149	699	-13	31
170	220	421	123	31
-120	44	445	-132	31
-219	204	430	-231	31
-413	155	-256	-344	31
-314	211	-798	-319	31
91	192	-1193	-234	31
-68	94	-1690	99	31
-151	49	-1297	1268	31
-22	8	-115	1133	31
-19	106	307	180	31
146	71	205	181	31
260	109	318	-66	31
-131	101	415	-304	31
-254	104	315	-111	31
80	193	-43	158	31
215	400	-171	287	31
209	569	-164	27	31
72	257	-350	29	31
-61	-302	-242	-76	31
20	-626	49	-205	31
172	-370	174	-375	31
181	-13	212	-555	31
202	87	381	-202	31
70	140	562	-18	31
-64	112	347	-69	31
18	20	96	-137	31
17	-86	-275	-187	31
-21	-116	-325	-150	31
43	46	-47	-27	31
134	426	227	9	31
46	610	606	97	31
97	282	454	61	31
79	-108	260	-13	31
68	-59	87	79	31
81	6	-192	12	31
-197	-228	-314	44	31
-156	-578	16	135	31
-52	-985	412	143	31
-115	-731	41	-37	31
-147	-149	-80	-136	31
-277	131	-169	-117	31
-146	227	-755	-41	31
66	138	-793	235	31
-32	127	-176	350	31
-73	79	139	417	31
-61	65	-16	207	31
129	104	70	-79	31
209	239	81	-70	31
5	445	79	-81	31
54	516	137	-34	31
71	408	126	-42	31
15	58	149	-41	31
-20	86	89	-71	31
-145	175	107	-112	31
-235	-126	72	-122	31
-169	-265	70	-56	31
-5	-400	-41	67	31
-32	-270	-188	21	31
-120	-31	-21	-47	31
-35	-175	164	-112	31
