File Name: not saved
Channel 1: 'EMG 1', 17639 values, raw ADC, no filters.
Channel 2: 'EMG 2', 17639 values, raw ADC, no filters.
Channel 3: 'EMG 3', 17639 values, raw ADC, no filters.
Channel 4: 'EMG 4', 17639 values, raw ADC, no filters.
Digitals combined (event=16, d=8, c=4, b=2, a=1): 17639 values, .

8	-78	-58	-7	31
164	-98	-97	-177	31
-16	-194	102	-390	31
-153	-194	370	-372	31
-12	1	571	-260	31
-125	330	215	78	31
-146	582	-312	44	31
-46	465	-434	-11	31
5	52	-413	184	31
41	15	-243	71	31
-62	57	-202	3	31
-22	-90	-299	-66	31
-34	-60	-493	-61	31
-325	-13	-443	64	31
-234	40	-17	166	31
151	1	50	190	31
251	-92	175	79	31
127	-40	478	46	31
44	-36	634	16	31
120	-131	460	36	31
11	-196	194	-64	31
-41	-184	170	-366	31
26	-79	72	-483	31
-49	126	52	-120	31
-33	332	-26	102	31
-195	442	-134	37	31
-309	267	121	164	31
-44	-30	240	84	31
147	-71	48	72	31
163	-93	151	29	31
146	-126	190	-131	31
27	-118	-304	-273	31
-124	-142	-573	-299	31
-24	-69	-309	79	31
54	44	-32	506	31
9	216	68	578	31
81	180	-88	140	31
2	-87	-239	37	31
-174	-290	-383	110	31
-66	-277	-272	-12	31
1	235	180	4	31
-64	784	275	-81	31
-55	972	230	-58	31
-162	797	50	14	31
-67	-109	-113	44	31
87	-1487	-110	-2	31
192	-1926	6	-67	31
111	-973	249	-3	31
142	-220	160	-41	31
366	-9	60	-129	31
-147	104	-9	-64	31
-177	106	-180	144	31
96	164	-57	178	31
31	117	282	-52	31
34	150	292	-89	31
-124	160	182	-121	31
51	139	483	-262	31
-21	132	465	-212	31
-174	22	2	-129	31
-80	89	-169	-102	31
-128	240	-210	-49	31
29	266	-236	-19	31
156	114	-263	-50	31
-121	-59	-254	-28	31
-38	-157	-48	-46	31
260	-135	-79	182	31
84	21	-45	344	31
29	59	44	100	31
22	16	-94	48	31
16	2	-73	-19	31
-13	-34	-194	-96	31
-131	-62	-353	-71	31
-92	-58	-249	-31	31
-70	19	-157	167	31
-62	159	-274	193	31
-181	210	20	136	31
-141	193	772	66	31
82	146	842	25	31
73	102	298	56	31
36	131	-104	-19	31
34	116	-588	-12	31
148	97	-762	-70	31
249	96	-77	-88	31
-9	76	305	104	31
31	145	284	104	31
177	255	201	83	31
34	321	13	111	31
130	196	-61	69	31
-116	-176	-117	-17	31
-255	-529	184	-112	31
-46	-666	410	-45	31
-1	-472	169	111	31
-31	-194	110	154	31
-251	-127	250	-119	31
-11	24	-59	-428	31
106	262	-543	-517	31
94	445	-571	-582	31
198	429	-73	-282	31
60	202	347	278	31
36	-36	269	292	31
36	-190	159	310	31
238	-353	-2	413	31
-5	-569	-86	154	31
-290	-351	47	252	31
-180	-47	94	312	31
-172	108	-8	169	31
52	358	-245	104	31
-4	296	-370	-19	31
-176	9	-174	-134	31
-86	-50	50	-325	31
34	91	172	-300	31
65	74	337	-126	31
5	49	437	-64	31
34	47	330	132	31
104	-6	132	448	31
246	-7	118	347	31
202	96	-54	-124	31
88	363	-374	-714	31
76	430	-508	-678	31
146	306	-402	-257	31
31	-18	-311	14	31
-244	-604	-397	583	31
-85	-687	117	456	31
-121	-312	426	195	31
-200	-35	192	304	31
64	125	180	191	31
134	107	-27	133	31
131	71	-195	-119	31
-17	5	-395	-367	31
-29	-209	-170	-460	31
183	-311	304	-277	31
92	-131	305	122	31
-149	22	361	247	31
-137	37	212	27	31
70	67	309	-86	31
86	53	518	-24	31
-26	54	303	4	31
-99	46	156	-14	31
-26	32	-29	-53	31
129	31	-96	33	31
-72	24	104	-17	31
-212	44	-46	-81	31
-193	52	-382	56	31
-129	72	-503	122	31
36	98	-866	138	31
7	215	-390	114	31
13	227	242	34	31
-2	-37	44	31	31
119	-240	83	52	31
186	-194	6	31	31
89	228	-96	-41	31
112	539	-476	5	31
46	383	-408	231	31
-29	189	194	307	31
-91	-166	100	77	31
-91	-401	292	-199	31
-172	-347	485	-291	31
-207	-431	74	-40	31
-142	-494	-229	156	31
69	-250	-140	-39	31
88	-54	123	-158	31
-201	-149	244	-63	31
62	-34	41	-106	31
210	67	-76	-224	31
75	61	319	-199	31
61	120	498	-164	31
134	28	410	-50	31
156	24	136	64	31
-1	84	-766	99	31
81	58	-1152	121	31
-100	85	-483	155	31
-167	217	252	119	31
2	360	788	37	31
-109	519	1003	-44	31
-99	490	585	-179	31
-90	162	211	-124	31
-131	-44	-11	-6	31
-319	-210	-290	392	31
-112	-235	-296	555	31
354	87	-467	14	31
137	145	-553	-25	31
221	13	-272	0	31
348	-129	74	-212	31
86	-251	213	67	31
-16	-108	89	-42	31
-1	-15	40	-177	31
-17	29	111	24	31
-420	1	162	-16	31
-79	-107	114	74	31
258	-87	87	-17	31
-68	-22	-122	-113	31
26	136	-15	-196	31
-51	307	422	-339	31
24	392	324	-84	31
24	389	-20	41	31
-143	60	17	176	31
-145	-330	304	459	31
26	-613	-105	259	31
285	-722	-664	-34	31
156	-61	-821	-41	31
193	344	-546	-74	31
14	159	-67	-101	31
-172	14	217	-6	31
-24	-433	458	194	31
30	-399	242	156	31
-17	-91	-254	-75	31
-149	-12	-728	-160	31
-14	63	-469	-95	31
-120	68	317	196	31
-137	134	877	204	31
14	100	881	72	31
-39	87	493	-34	31
114	60	226	-276	31
138	-24	-124	-192	31
124	-78	45	-148	31
98	-115	129	-176	31
204	-38	-496	54	31
94	27	-927	160	31
-1	29	-1172	164	31
101	8	-916	299	31
-297	19	181	110	31
-225	41	937	-207	31
43	107	1059	-83	31
147	200	934	36	31
-91	256	423	147	31
-454	249	-270	252	31
-322	144	-727	149	31
-29	59	-588	-12	31
176	24	-149	-213	31
112	19	71	-365	31
316	-6	84	-452	31
255	-37	37	-339	31
263	-35	-152	19	31
147	-36	-286	50	31
-191	-46	-182	-6	31
67	-152	377	246	31
16	-259	1080	231	31
-194	-262	973	18	31
-74	-267	635	-156	31
19	-216	235	-206	31
-148	-102	-545	-119	31
-36	41	-905	-54	31
-68	234	-808	81	31
-156	185	-471	316	31
103	-99	292	-7	31
19	-144	862	-320	31
-64	22	447	-180	31
172	224	11	-205	31
186	540	-328	324	31
57	531	-921	1023	31
229	195	-670	908	31
184	184	219	314	31
-94	282	357	-67	31
-264	217	-395	-174	31
-118	89	-941	-21	31
-69	-199	-849	73	31
-207	-524	-109	-37	31
-90	-775	393	-244	31
40	-631	359	-571	31
-11	-87	225	-613	31
-444	283	269	-510	31
-261	499	640	-308	31
150	384	718	272	31
22	121	573	722	31
44	140	280	167	31
-98	61	-101	-86	31
219	69	-674	151	31
476	268	-708	-33	31
179	445	-422	101	31
-10	290	-321	335	31
46	-104	418	380	31
147	-374	664	218	31
-178	-610	733	237	31
-187	-383	583	48	31
-174	-21	-342	-279	31
-19	170	-738	-309	31
90	189	-377	-366	31
-86	-98	124	-184	31
275	-375	354	-49	31
270	-515	56	-64	31
168	-251	-826	-34	31
52	-57	-561	159	31
-331	138	156	268	31
-289	549	51	180	31
-194	581	38	-162	31
38	460	85	-565	31
361	-87	312	-457	31
216	-902	296	117	31
-112	-860	-139	766	31
-234	-257	-169	206	31
-277	7	340	-587	31
-154	-21	546	-325	31
6	-9	603	-204	31
-121	-9	684	-191	31
-14	16	705	-162	31
-26	84	574	1	31
90	117	15	18	31
669	122	-317	-250	31
543	66	-799	-389	31
233	47	-1275	-166	31
200	72	-1345	904	31
195	96	-886	1190	31
232	149	85	256	31
89	303	1093	-123	31
9	363	1403	-267	31
-23	106	736	-203	31
-197	-177	-63	-216	31
-217	-357	-819	-253	31
-290	-290	-1122	294	31
-296	-106	-802	350	31
75	-184	-33	215	31
81	-155	520	237	31
66	-87	533	257	31
138	-79	174	96	31
156	74	-3	-5	31
171	157	470	-44	31
-161	192	586	-250	31
-167	125	519	-110	31
-60	129	1045	91	31
-43	245	1095	-39	31
177	202	-354	-462	31
-34	182	-1615	-865	31
-325	185	-1887	-225	31
-191	152	-1480	488	31
-17	-17	-417	-4	31
-2	-323	148	-159	31
-330	-411	264	29	31
-195	-306	-7	324	31
132	-21	-91	408	31
-269	354	250	11	31
59	629	364	-28	31
196	600	372	36	31
18	399	408	-18	31
360	365	430	-136	31
-12	26	217	-70	31
-44	-236	262	-71	31
-3	-206	415	-14	31
-202	-407	415	63	31
-104	-273	413	29	31
-184	86	177	119	31
-39	208	-99	154	31
11	58	-320	173	31
-99	-208	-359	47	31
78	-265	-49	86	31
167	-300	466	253	31
-24	-275	849	69	31
-50	-215	666	-244	31
154	-87	-174	-379	31
50	104	-886	-266	31
147	87	-948	206	31
197	107	-723	570	31
-159	90	-514	122	31
-9	-2	-358	-1	31
99	-95	-453	86	31
-200	-164	-372	-295	31
-218	-87	27	-294	31
-72	-114	52	-189	31
-42	-100	56	-89	31
23	107	64	-58	31
-1	140	131	-47	31
-43	-132	498	34	31
93	-454	788	25	31
283	-628	555	19	31
98	-255	510	158	31
-178	470	603	483	31
77	616	-123	404	31
72	456	-685	285	31
-171	298	-1179	207	31
39	302	-811	-414	31
201	628	329	-628	31
56	612	340	-450	31
-144	383	83	-483	31
-221	-82	109	-196	31
-150	-829	264	168	31
-15	-927	32	135	31
24	-410	-956	210	31
-126	-70	-1187	288	31
46	22	-101	131	31
292	187	985	7	31
66	328	1326	-146	31
-133	309	826	-411	31
-24	132	193	-269	31
210	-235	-323	729	31
-14	-548	-785	930	31
-147	-684	-635	311	31
184	-512	-42	4	31
51	-157	525	-576	31
-97	29	852	-643	31
-196	248	1137	-299	31
-62	395	978	-212	31
253	360	-97	79	31
-61	298	-1294	233	31
-97	204	-1321	227	31
50	183	-711	52	31
27	192	-252	-270	31
-27	194	460	-122	31
-71	98	503	-73	31
282	13	89	-181	31
136	32	-304	-60	31
-91	-29	-495	-39	31
212	-44	-249	242	31
71	-59	32	578	31
59	-168	211	576	31
-62	-364	244	203	31
-345	-581	613	-37	31
73	-569	683	-358	31
151	-247	1045	-650	31
-162	220	1315	-228	31
-163	505	509	-9	31
-53	525	209	176	31
60	363	-495	294	31
128	74	-1296	167	31
94	-271	-1735	214	31
-51	-496	-2016	47	31
-238	-392	-1270	-48	31
-249	194	-407	119	31
17	817	525	21	31
162	1013	793	84	31
72	720	625	57	31
65	144	441	-200	31
-87	44	272	-176	31
-130	-28	595	-154	31
53	-159	385	370	31
-102	-116	-267	735	31
-6	-213	-883	357	31
267	-154	-838	112	31
132	-127	-174	-374	31
28	-66	433	-742	31
17	4	686	-397	31
73	-17	520	-405	31
32	-36	249	-368	31
12	-264	176	-137	31
264	-423	651	-79	31
222	-244	870	102	31
-22	-21	368	393	31
28	118	-26	561	31
-59	315	-224	146	31
-46	253	-512	4	31
-10	18	-370	-60	31
-254	-174	-28	-174	31
-240	-509	198	-23	31
-66	-583	335	55	31
134	-260	152	219	31
-223	-16	-6	179	31
-128	10	109	181	31
255	7	134	51	31
-4	60	-112	-102	31
52	225	-94	27	31
-39	358	-241	-60	31
139	400	-684	-237	31
336	339	-804	-298	31
107	28	-742	-358	31
-111	-311	-310	-47	31
-142	-696	24	356	31
27	-694	7	683	31
16	-94	360	515	31
-3	182	225	-268	31
-129	121	-84	-11	31
-104	58	170	-110	31
-50	-29	306	-693	31
-22	-55	486	-354	31
24	-162	591	-269	31
-58	-213	150	-142	31
53	-179	-613	37	31
118	-84	-661	72	31
94	108	-390	201	31
178	212	-290	10	31
142	345	-39	-147	31
-182	480	197	54	31
-307	680	316	189	31
-179	921	97	173	31
-134	641	43	299	31
-43	-72	178	203	31
-108	-358	245	-30	31
-80	-299	274	-117	31
91	-151	-18	30	31
73	104	-91	29	31
77	19	157	-101	31
13	-64	161	-104	31
135	-195	74	-167	31
310	-267	-139	-112	31
-51	-115	-144	-169	31
-149	-169	140	-144	31
69	-182	493	196	31
-80	-191	613	410	31
-29	-167	239	310	31
128	-109	-135	156	31
53	-41	-663	73	31
-110	77	-877	34	31
-172	121	-686	-61	31
-140	84	-98	-94	31
-131	21	666	-85	31
58	200	590	-169	31
96	350	-49	-102	31
58	362	-473	253	31
77	285	-254	565	31
24	127	-117	617	31
-9	53	255	192	31
44	-54	1036	-244	31
44	-54	864	-2	31
24	-49	193	-119	31
136	-127	-189	-228	31
79	-203	-339	-229	31
-74	-259	-187	-413	31
-246	-167	-164	-310	31
-220	-91	-294	-185	31
-61	-60	-468	83	31
-158	-14	-463	82	31
-155	71	159	-187	31
1	101	460	-409	31
140	-95	178	-134	31
233	-355	179	186	31
79	-606	67	-60	31
48	-597	-465	-82	31
206	-134	-521	19	31
67	313	29	116	31
82	592	370	124	31
141	647	575	157	31
-49	472	273	250	31
9	422	-444	86	31
-13	287	-428	78	31
-117	247	-132	218	31
29	322	315	367	31
-53	172	-31	95	31
-231	142	-985	-87	31
-149	-334	-1128	176	31
27	-869	-904	162	31
72	-684	-420	-21	31
12	-330	548	-350	31
159	27	1157	-325	31
153	34	1207	-193	31
4	-106	1192	-81	31
-7	-163	900	131	31
11	-261	519	-8	31
11	-165	-265	-135	31
-31	-93	-793	-137	31
92	-63	-971	280	31
95	17	-967	575	31
-45	143	-339	-164	31
-113	246	154	-480	31
-110	235	191	64	31
-286	174	-51	-2	31
-292	192	326	-71	31
143	264	519	71	31
21	247	259	-9	31
23	274	265	-74	31
284	246	-386	-72	31
47	-69	-882	-92	31
-89	-325	-637	-259	31
26	-293	-313	-226	31
12	-292	-70	13	31
-120	-327	253	144	31
107	-282	658	173	31
77	-206	967	77	31
-4	-96	871	-2	31
-4	31	696	79	31
-49	211	925	251	31
67	360	339	366	31
-131	505	-513	194	31
-28	631	-1015	27	31
114	455	-1298	91	31
21	174	-396	154	31
-80	94	201	79	31
7	-24	4	12	31
58	-185	4	-50	31
2	-206	-4	-69	31
94	-59	305	-50	31
-118	188	336	-161	31
-110	317	122	-284	31
4	125	182	-276	31
-111	-141	3	-76	31
-61	26	-356	-2	31
58	124	-436	76	31
69	-62	-343	92	31
47	-451	-330	-139	31
87	-804	53	-9	31
247	-511	269	194	31
258	-412	95	135	31
-144	-260	83	289	31
-114	33	132	197	31
81	-16	177	-225	31
-147	63	34	-1	31
-2	-14	-86	-109	31
293	-25	-19	-214	31
275	-34	77	34	31
-51	-71	274	-445	31
-242	7	315	-248	31
-195	21	104	126	31
10	111	4	252	31
-46	146	5	379	31
-265	215	84	187	31
-106	280	89	174	31
-139	252	-162	115	31
-22	160	-26	160	31
116	91	330	262	31
105	75	365	136	31
83	37	-164	-102	31
61	30	-839	-220	31
160	-4	-861	-405	31
140	40	-911	-424	31
199	88	-430	-375	31
20	115	594	-392	31
-229	160	632	-191	31
-112	-37	190	-12	31
7	-212	-348	325	31
-142	-94	-434	312	31
-209	159	120	72	31
24	268	683	21	31
79	102	884	-289	31
7	-50	506	-196	31
41	-284	143	404	31
-17	-516	-104	496	31
102	-416	44	179	31
368	-308	61	-162	31
134	-265	-114	-198	31
-259	-146	-372	-6	31
1	-70	-827	43	31
7	4	-477	213	31
-184	147	49	346	31
184	251	167	265	31
42	348	267	186	31
-186	579	403	201	31
-126	645	457	139	31
-76	426	526	49	31
-46	408	202	-117	31
-46	445	-587	-319	31
14	61	-834	-174	31
46	-425	-857	-7	31
133	-551	-917	71	31
93	-385	47	-107	31
123	-314	857	-568	31
97	-72	837	-511	31
57	344	663	-137	31
107	190	-110	38	31
-14	-288	-402	-49	31
-56	-620	-149	-84	31
54	-726	-54	-146	31
82	-491	155	-240	31
26	-64	392	-68	31
-49	81	540	314	31
-176	44	-41	535	31
-215	220	-911	159	31
-66	416	-1469	120	31
145	634	-1117	309	31
-32	730	209	134	31
-106	574	567	74	31
12	254	661	-145	31
7	-61	832	-253	31
233	-134	513	74	31
242	29	434	196	31
78	471	251	45	31
-204	490	307	274	31
-167	-51	403	371	31
43	-175	215	126	31
-167	-55	28	-141	31
-213	-342	-136	-272	31
-184	-786	-408	124	31
-71	-1130	-529	-51	31
-84	-1046	-407	-393	31
-40	-357	-119	-322	31
150	-67	1	-315	31
104	-89	-255	-111	31
92	-4	-61	-161	31
111	42	135	-51	31
125	248	438	28	31
93	232	684	-35	31
177	152	-64	22	31
147	136	-480	84	31
76	-1	-220	319	31
22	-21	-185	224	31
-249	159	138	-62	31
-192	206	251	-108	31
-99	135	-6	110	31
37	164	290	339	31
14	104	618	230	31
-94	154	548	235	31
12	251	388	345	31
49	295	112	298	31
161	355	-474	206	31
-65	415	-586	-319	31
-6	243	-254	-381	31
133	-269	-348	-157	31
27	-453	-979	-594	31
124	-510	-1295	-332	31
-7	-529	-1009	347	31
-106	-222	-534	205	31
-92	5	361	-213	31
111	139	803	-313	31
74	286	854	26	31
-276	378	696	225	31
-215	323	252	213	31
-94	266	-222	64	31
-15	703	-641	-97	31
110	1219	-387	9	31
80	1100	264	39	31
177	346	711	-5	31
241	-818	623	-67	31
15	-1170	524	-119	31
20	-783	272	-389	31
69	-751	-69	-352	31
47	-508	-101	479	31
49	-165	-342	656	31
-64	-168	-316	-207	31
-82	-406	-21	-354	31
-104	-422	350	-146	31
-107	-354	467	-56	31
-102	-436	169	67	31
-56	-79	-47	76	31
-46	15	-157	221	31
-137	-119	-140	90	31
37	-31	-66	159	31
110	14	279	117	31
62	131	684	-78	31
161	79	355	39	31
57	110	-474	91	31
84	273	-982	183	31
137	381	-694	76	31
-10	420	-7	-44	31
-106	297	616	-44	31
-186	187	1103	-16	31
-187	54	564	24	31
-261	4	-681	-94	31
-95	43	-1436	-22	31
104	86	-1430	115	31
-101	212	-754	51	31
-210	284	170	60	31
-83	246	332	15	31
56	164	370	-260	31
69	111	760	-217	31
111	69	583	64	31
172	22	689	237	31
54	0	724	347	31
-9	-11	46	-94	31
46	7	-610	-362	31
1	78	-980	54	31
-15	177	-999	7	31
-49	237	-1032	-233	31
-81	201	-511	-67	31
-18	-18	523	-67	31
-11	-269	933	-66	31
-62	-383	1010	-61	31
-47	-192	804	-46	31
76	164	731	-3	31
47	205	746	-47	31
81	229	189	26	31
146	89	-270	149	31
-11	-359	-711	334	31
-56	-576	-781	146	31
-7	-734	-320	-177	31
222	-578	57	-359	31
200	-131	465	-470	31
-51	150	822	-310	31
144	471	651	32	31
68	498	-53	801	31
-149	265	-543	1189	31
-172	-46	-620	647	31
-132	-548	-378	137	31
-60	-621	-47	-338	31
-54	-333	12	-768	31
47	-95	210	-606	31
5	293	544	-273	31
123	539	312	-122	31
137	634	-264	57	31
78	837	-826	184	31
76	684	-1075	63	31
44	374	-723	4	31
109	94	-141	218	31
5	-603	184	176	31
-29	-882	2	-54	31
-119	-561	-11	-19	31
-24	-572	154	42	31
111	-600	-52	-37	31
-52	-312	-137	-84	31
-187	15	29	-144	31
-56	154	0	-199	31
71	277	-247	-172	31
9	348	112	114	31
41	143	928	464	31
-67	-26	1261	140	31
37	-280	1159	-294	31
110	-347	625	-275	31
-2	-50	408	114	31
20	49	54	946	31
-40	69	-681	865	31
-10	117	-656	79	31
7	317	-749	41	31
-84	355	-536	-74	31
-271	-82	37	-481	31
-146	-357	363	-497	31
114	-512	485	-521	31
16	-204	447	-449	31
-3	322	752	-109	31
-54	138	671	56	31
7	102	324	-223	31
122	312	343	-254	31
87	320	-53	155	31
112	325	-1357	156	31
70	282	-1910	-35	31
35	313	-1855	-197	31
-14	240	-1568	62	31
79	88	-575	-16	31
90	69	-100	-162	31
-81	25	319	217	31
-117	-17	628	154	31
-192	-36	695	64	31
-142	-68	779	51	31
-118	-79	523	53	31
-161	-76	272	119	31
-102	-52	273	285	31
-52	-41	428	109	31
97	-56	332	-20	31
257	-52	14	416	31
319	-67	-272	442	31
258	-116	-14	85	31
176	-139	237	-52	31
167	-194	14	-104	31
128	-205	-145	-182	31
22	-135	-438	-125	31
16	-73	-269	-143	31
-4	49	215	-84	31
-77	137	541	-6	31
-41	204	1431	-8	31
-241	275	1724	-28	31
-359	229	535	-254	31
-86	168	-510	-29	31
103	135	-1287	496	31
176	46	-1010	716	31
51	34	39	570	31
-112	189	360	56	31
59	240	615	63	31
172	101	-145	-257	31
76	-199	-812	-943	31
39	-497	-987	-691	31
37	-322	-554	-337	31
32	22	34	-66	31
-33	129	-453	154	31
-181	134	-93	330	31
-111	-56	60	127	31
53	-325	-31	-277	31
-68	-380	23	-227	31
-137	-192	257	-245	31
-42	-81	847	-114	31
106	18	473	7	31
130	286	-257	131	31
104	322	-408	310	31
226	101	178	192	31
123	-121	430	-134	31
62	-312	323	-230	31
180	-204	161	-68	31
101	179	-33	224	31
-106	245	-258	1186	31
-192	34	-738	1323	31
-109	-149	-49	146	31
-44	-165	470	-415	31
-99	23	59	-475	31
-82	277	119	-545	31
-47	775	-398	-525	31
-112	1000	-837	-662	31
-127	420	-585	-467	31
-39	-368	-130	-171	31
-66	-1164	232	449	31
-6	-1312	75	251	31
247	-465	85	-331	31
69	3	132	304	31
-1	66	272	116	31
67	194	560	68	31
4	149	565	41	31
114	161	573	-24	31
30	210	308	255	31
-30	373	62	84	31
-93	374	-11	262	31
-83	-70	-613	129	31
-68	-403	-739	6	31
-108	-440	-182	-178	31
10	-187	150	-271	31
8	72	-25	64	31
33	86	36	177	31
97	137	485	46	31
122	170	382	2	31
23	138	74	121	31
6	82	-517	64	31
31	37	-446	72	31
-52	114	-136	65	31
37	266	-809	170	31
-1	436	-676	-37	31
-74	414	157	-607	31
-103	94	447	-293	31
-21	-264	409	-69	31
45	-418	728	-86	31
-202	-475	694	192	31
-240	-420	320	-6	31
-121	-219	160	82	31
-34	-96	-47	120	31
197	-63	216	53	31
210	26	582	-242	31
151	135	1294	-465	31
84	160	1621	328	31
-24	121	432	405	31
126	0	-1147	-186	31
99	-57	-2589	-360	31
-32	349	-3144	-8	31
-186	1136	-1093	836	31
-234	1474	1168	997	31
-29	1185	1272	649	31
-100	426	340	324	31
-128	-804	-1376	-346	31
-49	-908	-1932	-959	31
-137	-280	-689	-936	31
-76	-937	515	-257	31
-4	-1422	1390	212	31
-32	-1007	2265	108	31
120	-461	1455	-33	31
187	-150	-593	-161	31
202	-92	-1139	-378	31
269	316	-1784	-357	31
171	318	-956	-15	31
395	0	826	87	31
240	-201	789	-34	31
-86	-146	1188	-67	31
12	159	832	-228	31
-317	114	548	-331	31
-291	101	837	180	31
-99	75	285	586	31
-115	100	-24	65	31
57	112	-26	253	31
-57	88	182	1187	31
-129	262	-418	671	31
-49	271	-670	276	31
0	298	-506	689	31
115	212	-198	-168	31
144	40	303	-988	31
101	9	-1021	-454	31
109	22	-1305	137	31
21	266	365	-32	31
-82	362	1316	-340	31
-129	92	728	-380	31
-230	-227	-541	-410	31
-132	-510	-1723	-349	31
-107	-384	-1591	-257	31
-122	-68	414	-113	31
52	-25	1202	134	31
4	16	1080	256	31
90	-18	1614	4	31
219	-61	1230	-493	31
149	14	-131	-534	31
67	100	-1571	-73	31
198	200	-1715	232	31
269	225	209	503	31
-46	276	1088	1011	31
-24	216	789	410	31
-196	42	-110	-678	31
-398	-21	-495	-412	31
-317	-54	771	536	31
-246	-46	322	1302	31
-4	6	-595	645	31
46	8	-959	-159	31
152	79	-191	-279	31
199	308	397	-848	31
142	357	348	-673	31
169	97	1229	-318	31
164	-157	269	-631	31
17	-355	-917	-96	31
-12	-293	-1833	1016	31
254	164	-1922	978	31
284	515	-171	27	31
176	606	1463	52	31
-80	287	1834	517	31
-136	-481	389	395	31
-47	-1213	-382	285	31
-162	-1301	-392	-217	31
-45	-594	-764	-449	31
-112	-149	124	-754	31
-153	-52	423	-1402	31
-133	76	-971	-1292	31
-159	-121	-1215	-680	31
84	-79	-650	-278	31
42	400	719	181	31
-139	487	495	302	31
-187	250	-955	294	31
-176	229	-890	1380	31
-36	268	116	1460	31
14	254	1191	941	31
109	104	936	555	31
238	164	1395	294	31
294	221	1536	507	31
278	-137	189	375	31
166	-49	-794	-199	31
-67	672	-563	-816	31
-387	1300	15	-499	31
-349	1154	136	-628	31
-161	152	-615	-486	31
-73	-1277	-942	-176	31
86	-2160	770	-671	31
336	-1572	1726	-740	31
397	-686	1376	-388	31
174	-379	771	334	31
165	193	-137	612	31
228	581	-512	30	31
-122	491	-935	-341	31
-350	544	-1834	-48	31
-319	1224	-1642	392	31
-474	2576	-347	798	31
-524	2579	-164	124	31
-411	759	-195	550	31
-266	-991	-234	1414	31
21	-2241	-532	370	31
453	-2239	47	-532	31
534	-1285	207	-1098	31
394	-925	-407	-600	31
324	-395	91	-1022	31
233	68	2367	-1462	31
292	-61	2171	-838	31
167	18	889	-371	31
28	8	759	683	31
57	22	-54	850	31
51	227	-559	943	31
80	202	-1722	881	31
67	1	-1341	562	31
2	-37	-107	94	31
-166	-32	-309	-132	31
-309	-201	141	50	31
-242	-202	563	-384	31
-152	22	1157	-335	31
-74	275	1677	411	31
92	254	891	648	31
158	240	-450	223	31
-98	282	-1195	392	31
-149	119	-668	498	31
166	57	-130	83	31
214	17	-617	-409	31
266	31	-151	-828	31
245	150	-165	-586	31
139	277	-1035	524	31
99	312	-134	1342	31
-184	292	381	18	31
-299	322	91	-896	31
-294	43	-28	-375	31
-247	-247	76	-435	31
-190	-192	585	-696	31
-110	-155	1121	-656	31
38	59	322	-258	31
153	345	-1125	221	31
258	160	-1019	787	31
181	-108	14	603	31
149	-344	371	-12	31
164	-571	-62	-546	31
199	-323	-402	-729	31
141	-103	-1112	-324	31
94	-113	-358	-50	31
-9	13	930	299	31
-197	76	537	352	31
-248	187	299	499	31
-299	310	116	570	31
-187	303	734	260	31
-496	321	954	-160	31
-764	338	429	-451	31
-441	398	218	-245	31
-240	565	-383	-244	31
-205	750	-192	-121	31
-146	618	279	330	31
199	-41	408	823	31
346	-738	224	0	31
217	-781	-329	-518	31
269	-451	-1358	248	31
153	-267	-1551	-306	31
50	-239	-770	-286	31
-47	-330	442	55	31
-100	-352	1304	126	31
37	-209	927	372	31
96	-53	664	222	31
198	-26	-435	172	31
167	-19	-1062	-254	31
207	7	-1190	-334	31
313	-2	-375	-493	31
87	74	1037	-642	31
5	161	1529	-100	31
212	220	608	665	31
149	179	-1481	1271	31
-103	-96	-1244	913	31
-26	-291	1179	197	31
-1	-64	2386	49	31
-207	-47	405	-679	31
-164	-159	-863	-1275	31
-179	107	-1881	-691	31
-134	-147	-1291	-741	31
298	-188	751	-815	31
349	268	889	259	31
148	370	245	1331	31
131	537	-1456	2940	31
9	463	-1466	1876	31
-108	33	-877	-1041	31
1	-396	56	-1489	31
182	-346	1588	-1953	31
192	-126	1491	-991	31
95	-212	39	-21	31
84	-127	-1381	-69	31
51	-109	-927	-80	31
-76	-90	747	318	31
-66	-71	961	1705	31
-86	-118	284	1244	31
-74	-36	972	823	31
-44	2	1471	112	31
-187	-19	36	-308	31
-122	-42	-1753	-73	31
-212	-17	-1145	-1286	31
-335	-47	411	77	31
-114	0	465	525	31
-63	96	-814	-895	31
1	44	-1466	-1567	31
104	46	-830	-1952	31
70	62	282	-177	31
56	179	1256	572	31
46	411	1478	582	31
-29	407	1012	1045	31
51	309	-114	994	31
317	277	-149	488	31
354	419	151	565	31
125	881	11	872	31
15	970	425	-850	31
-68	131	641	-1093	31
-347	-1079	-43	-465	31
-289	-1708	-813	-323	31
-179	-990	-107	776	31
-188	-108	587	868	31
-129	-28	86	-464	31
-160	11	-894	-950	31
63	-46	-468	-368	31
229	-4	658	-375	31
233	84	61	-315	31
192	49	-917	429	31
27	352	-881	1183	31
-79	673	8	1676	31
-136	621	-352	1069	31
-92	-26	-325	-148	31
-129	-817	494	378	31
-146	-891	189	638	31
60	-249	363	-199	31
58	156	265	-37	31
-123	180	314	-310	31
-191	256	-349	-810	31
-107	54	-475	-1745	31
-118	-6	1262	-2034	31
-290	51	760	-1206	31
-287	-16	-1042	-338	31
5	81	-941	1140	31
34	96	545	1557	31
-144	59	1696	602	31
-7	17	1275	-908	31
111	40	-995	-762	31
262	43	-1681	412	31
383	-1	-272	1143	31
354	56	554	1480	31
149	45	316	666	31
-54	38	360	-859	31
-92	61	284	-1323	31
-239	29	-338	-472	31
-279	-27	-119	-1069	31
-184	-50	-269	-560	31
-66	4	-560	1397	31
-113	39	-674	3005	31
-81	-42	-590	2725	31
175	-137	481	68	31
185	-39	407	-1702	31
167	23	-281	-2845	31
61	-7	-50	-2432	31
-215	172	-203	-877	31
-206	184	-2	610	31
-169	52	508	412	31
70	22	1190	-472	31
455	-134	1421	316	31
416	-151	568	789	31
272	71	-583	1118	31
90	329	-1420	359	31
-20	410	-1739	-72	31
109	222	-1124	702	31
136	-34	836	132	31
61	-459	1473	-149	31
77	-658	390	-685	31
5	-208	-914	-846	31
-128	172	-1477	-253	31
-121	129	-496	108	31
-140	-57	661	1070	31
-54	-200	1386	129	31
48	-199	802	-1087	31
103	-44	13	878	31
151	92	-586	1374	31
47	109	-1069	-1449	31
61	86	-565	-573	31
62	92	443	346	31
12	-84	2313	-1093	31
-146	-420	1771	409	31
-254	-391	-27	1372	31
-94	-230	-818	712	31
104	36	-913	691	31
262	355	695	-610	31
311	208	429	-285	31
392	303	-1394	2454	31
81	551	-2014	1952	31
-187	358	-768	-680	31
166	240	914	-3450	31
60	98	1010	-1798	31
-105	-16	-520	537	31
62	-104	-1328	-202	31
-2	-107	-252	-484	31
-182	108	17	-983	31
-272	16	-236	429	31
-267	12	536	725	31
-248	31	1030	356	31
-217	-51	1249	263	31
-263	-51	2033	94	31
115	-150	1145	516	31
232	-63	-777	547	31
194	-66	-1493	372	31
431	-101	-1614	-925	31
318	-35	-902	-999	31
202	-26	-57	-317	31
65	-7	641	-255	31
20	-26	1295	-151	31
-93	45	1321	227	31
-192	49	355	219	31
-124	-32	-1391	-34	31
-205	-77	-1396	-172	31
-294	-101	-468	-378	31
-251	-63	635	-196	31
-52	-46	1206	349	31
36	-51	-160	667	31
32	-34	-481	422	31
19	-29	-149	505	31
110	-21	402	423	31
226	9	1062	468	31
149	3	-17	369	31
64	-17	-1742	-490	31
30	-13	-1981	-836	31
91	30	-220	11	31
-10	32	1082	447	31
-169	1	1233	570	31
-199	48	1355	897	31
-161	19	1147	-89	31
13	-26	383	-796	31
-27	-18	71	-162	31
-117	-34	-100	-104	31
-9	-31	-1275	-618	31
126	9	-1376	19	31
153	139	-322	770	31
104	255	12	286	31
112	292	947	-696	31
142	261	300	-735	31
100	89	-1152	-726	31
-106	-134	-679	-901	31
-125	-325	299	-557	31
-18	-441	793	231	31
-93	-252	-207	1346	31
-121	14	-490	436	31
-194	50	-136	-475	31
-121	154	-129	-184	31
-5	360	-57	326	31
-39	423	144	859	31
61	221	508	-244	31
-19	-189	688	-478	31
-61	-470	428	77	31
-47	-403	-422	-155	31
-14	-265	-552	-44	31
151	-126	62	-63	31
169	57	135	-96	31
146	138	-460	-172	31
57	270	-153	-437	31
36	172	107	17	31
12	-236	181	1086	31
-115	-278	244	1239	31
-144	-6	-506	11	31
-24	50	-125	-1040	31
92	26	300	-327	31
66	44	788	771	31
67	41	1221	1036	31
-25	69	234	465	31
77	55	-477	-164	31
148	52	-779	-574	31
-56	92	-488	-292	31
124	90	-483	-353	31
11	103	-415	-1119	31
-4	75	-491	-317	31
99	82	-578	60	31
-247	156	736	204	31
-90	184	681	460	31
-11	192	135	-41	31
62	67	521	-301	31
70	-106	763	-958	31
-181	-297	966	-1426	31
-164	-383	481	305	31
-167	-182	-915	3213	31
-52	38	-1215	2673	31
192	169	107	615	31
228	244	726	82	31
-1	313	328	-442	31
63	243	-349	114	31
27	49	-1479	-181	31
-59	-216	-1869	-1486	31
152	-431	-561	-934	31
112	-227	538	-652	31
45	-9	603	-815	31
58	136	421	-275	31
91	379	745	-106	31
-136	270	1797	1	31
-96	-61	1030	278	31
22	-280	-1268	394	31
-177	-307	-1659	51	31
-23	-15	254	-485	31
-25	168	699	-389	31
-42	-4	-928	-30	31
78	-209	-550	242	31
159	-382	202	155	31
81	-217	448	147	31
-19	96	241	270	31
166	92	-304	-12	31
157	221	-107	109	31
99	150	136	25	31
83	-111	962	-200	31
-17	-37	577	111	31
-173	7	175	262	31
-189	28	186	517	31
-3	22	-43	532	31
-18	14	-7	40	31
-106	40	-47	-147	31
-110	17	317	-52	31
-66	40	208	106	31
14	54	-140	0	31
47	142	-343	-425	31
52	248	352	-498	31
94	221	982	-383	31
79	81	174	-400	31
152	-155	-548	-173	31
180	-345	-839	552	31
34	-220	-1052	395	31
120	12	-1019	137	31
-22	12	-150	217	31
-232	2	669	-843	31
-166	-5	784	-587	31
-154	-20	382	508	31
-120	46	-1072	1330	31
-127	75	-1845	1024	31
-52	153	-548	-682	31
43	189	506	-978	31
-14	-120	1374	183	31
-146	-423	1435	1384	31
-136	-169	-543	1832	31
127	144	-1182	1076	31
268	175	-758	-891	31
162	285	316	-1387	31
167	558	246	-1413	31
110	645	-60	-1174	31
59	253	664	-249	31
24	-214	185	-159	31
-122	-669	397	-16	31
22	-762	179	-283	31
-17	-255	236	13	31
2	18	482	49	31
78	153	440	93	31
-91	283	387	328	31
-35	247	-199	316	31
-39	-39	-303	544	31
-51	-497	-520	47	31
-9	-383	-521	-400	31
117	-70	-344	-589	31
177	30	288	-129	31
66	37	538	375	31
34	0	267	180	31
2	64	473	166	31
-12	47	99	-146	31
-77	68	-742	-600	31
-135	107	-1027	-278	31
-146	103	-454	-380	31
-154	111	82	339	31
-158	92	219	1380	31
-97	31	513	345	31
-20	-27	672	140	31
52	32	538	262	31
150	37	1000	40	31
77	104	1371	139	31
64	198	-526	48	31
64	206	-2730	330	31
45	229	-1800	339	31
250	241	-190	229	31
191	283	-31	-260	31
-209	252	726	-643	31
-346	395	862	-290	31
-60	520	556	-79	31
39	-41	250	-270	31
11	-448	-882	-413	31
53	-330	-972	-224	31
-104	-734	-128	31	31
-113	-825	375	-51	31
-91	-157	-567	-141	31
-11	194	-1062	-124	31
91	72	94	-31	31
83	-702	1559	183	31
187	-1058	1441	221	31
114	-529	448	198	31
61	-317	299	17	31
9	-177	67	32	31
-57	69	111	100	31
42	302	186	116	31
39	494	43	116	31
-69	336	-169	-21	31
-87	221	-330	-17	31
-67	238	-201	-36	31
0	184	-142	52	31
37	156	144	22	31
-72	117	692	-61	31
-52	82	651	-69	31
-7	85	-51	-51	31
126	82	-78	-56	31
127	56	24	-127	31
38	69	-891	9	31
225	94	-1764	66	31
200	88	-1026	-9	31
-60	106	779	75	31
-234	117	1115	265	31
-120	91	59	252	31
-96	53	-1053	6	31
-66	64	-781	-252	31
-7	69	189	-197	31
-109	35	-132	77	31
-62	29	125	170	31
-143	7	511	137	31
-37	-12	374	175	31
84	-16	855	119	31
82	-31	708	-127	31
14	-38	315	-166	31
-48	-16	-438	-143	31
144	10	-1346	-219	31
121	31	-776	-126	31
81	143	99	502	31
56	126	1474	372	31
-89	-210	2190	-129	31
-138	-273	571	284	31
-116	73	-520	168	31
-122	244	-473	16	31
-166	94	-950	-87	31
-61	-89	-1110	-204	31
89	-213	-535	-230	31
1	-310	-71	-750	31
-11	-121	67	-815	31
106	37	-326	-359	31
72	-21	-463	79	31
66	29	65	146	31
95	162	182	-47	31
159	521	267	-186	31
120	682	397	-101	31
34	370	-295	279	31
24	-92	-967	530	31
-106	-729	-899	597	31
-195	-658	408	427	31
-117	-125	928	178	31
5	-403	638	157	31
49	-389	1245	35	31
-37	36	1377	-66	31
-106	112	1032	24	31
-96	208	82	62	31
42	88	-438	-14	31
214	-11	-352	-194	31
-27	-100	-354	-252	31
-112	-214	-554	-150	31
96	7	-458	7	31
78	260	93	67	31
79	360	-586	-72	31
55	322	-1530	112	31
-69	207	-1301	278	31
-112	-102	-553	39	31
8	-285	-14	26	31
-142	-69	410	-38	31
-93	211	365	-114	31
60	413	744	-43	31
-127	215	698	21	31
-126	-180	80	-12	31
-112	-415	667	-139	31
169	-657	1040	-72	31
268	-593	661	-135	31
-74	-248	-92	-116	31
-29	-74	-311	18	31
107	-71	87	88	31
71	-34	27	101	31
40	49	-319	-49	31
104	222	-247	-184	31
89	645	254	-171	31
-127	875	86	72	31
86	801	-39	305	31
108	523	169	478	31
-92	-252	69	483	31
-77	-720	-7	255	31
-245	-614	-482	-23	31
39	-358	-351	-299	31
426	138	176	-321	31
176	438	-680	-137	31
-306	569	-1243	-42	31
-154	496	-268	39	31
150	239	354	14	31
23	592	-217	91	31
-54	964	-124	91	31
88	365	429	-89	31
393	-578	430	-27	31
57	-1234	408	-99	31
-374	-1177	403	-71	31
-150	-415	480	-7	31
-64	-41	400	-39	31
-96	14	180	36	31
-11	-4	-29	8	31
-46	-237	40	2	31
-19	-373	9	-19	31
36	-315	-368	-12	31
14	-158	-569	-48	31
89	-179	-81	-176	31
125	-102	631	-275	31
230	-27	665	-295	31
234	-37	90	-114	31
-47	82	-499	366	31
-181	91	42	540	31
-71	189	971	-22	31
-67	247	526	-50	31
-214	239	-1085	267	31
-19	197	-1860	335	31
134	32	-1638	430	31
-59	49	-1448	107	31
-1	91	-201	-304	31
132	114	1051	-405	31
86	138	647	-337	31
-179	85	14	-192	31
93	-58	244	4	31
195	-30	805	2	31
-394	378	929	-99	31
226	549	703	-62	31
270	409	240	15	31
-96	64	0	129	31
174	-732	31	330	31
-119	-914	-85	170	31
-137	-255	-7	-122	31
-117	-12	325	49	31
-105	25	450	-117	31
-134	42	485	-267	31
-46	-36	214	-38	31
102	-22	-392	74	31
-6	-165	-784	115	31
57	-220	-661	-83	31
229	-181	-246	-162	31
296	33	54	-42	31
64	511	52	253	31
86	855	202	384	31
109	817	509	-14	31
-222	226	-145	-273	31
-322	-750	-1272	-99	31
-26	-829	-819	326	31
128	458	977	571	31
17	1194	734	199	31
20	1298	-129	-379	31
-185	1215	-448	-310	31
-189	191	-1168	66	31
180	-673	-687	-161	31
112	-990	19	-362	31
-117	-960	719	210	31
-119	-392	916	260	31
7	107	343	-91	31
61	132	-199	16	31
139	-143	-353	-102	31
132	-538	192	-30	31
-23	-912	125	10	31
61	-704	-220	-87	31
76	-183	-75	-19	31
-24	26	550	-4	31
-101	-8	521	48	31
-82	-59	-2	-29	31
-207	-80	155	-14	31
-341	-131	269	32	31
-218	-134	214	-63	31
4	-132	425	-153	31
131	-94	970	-73	31
-106	-67	255	136	31
-24	-56	-1661	150	31
-129	35	-2077	56	31
110	128	-1338	81	31
425	385	-253	72	31
-475	749	916	-189	31
-142	865	1346	-307	31
504	525	866	-64	31
-9	-89	279	204	31
99	-372	121	407	31
87	-96	-52	344	31
-82	307	284	347	31
116	500	328	254	31
62	515	249	-74	31
-48	378	166	-14	31
-84	274	-615	-84	31
18	237	-1000	-151	31
-8	-7	-523	-102	31
-158	-132	289	-72	31
-52	-53	713	54	31
146	-592	254	-13	31
17	-836	-357	-95	31
-58	-278	-605	-58	31
87	-102	-243	54	31
22	100	669	27	31
-85	-26	1043	-27	31
-111	-591	1336	9	31
72	-949	496	-44	31
-46	-828	-1429	-232	31
-49	-23	-1942	-404	31
73	740	-995	-270	31
-79	1903	-142	-116	31
-47	2549	-222	204	31
71	1795	-102	189	31
201	499	154	-278	31
94	-881	367	-157	31
62	-1299	57	32	31
84	-975	-497	135	31
26	-752	71	224	31
-41	-1251	559	97	31
-3	-1520	1094	-16	31
-39	-716	625	-11	31
-69	-289	-629	30	31
87	-152	-232	67	31
-131	23	151	394	31
-29	198	254	418	31
96	314	480	-126	31
-49	343	435	-409	31
-94	607	412	-348	31
-152	678	-77	368	31
176	416	-804	825	31
99	-177	-769	156	31
-328	-707	-601	-232	31
-46	-201	-525	-379	31
108	1520	-608	-330	31
77	2379	-871	-106	31
190	1405	586	-167	31
124	241	2124	-195	31
-15	-1007	2699	-158	31
-52	-1439	1924	86	31
-86	-947	-509	104	31
-197	-852	-1803	-8	31
44	-721	-1724	22	31
150	-488	-1024	22	31
91	-67	-678	21	31
29	-116	-423	239	31
-17	-285	29	315	31
72	230	568	408	31
-64	388	637	479	31
25	172	505	-263	31
96	-592	609	-343	31
144	-1688	-2	-66	31
232	-1748	-136	-112	31
145	-644	401	-128	31
-226	526	440	-267	31
-598	962	-483	-205	31
73	984	-1265	-315	31
66	664	-585	-22	31
-185	39	717	690	31
-21	-225	565	680	31
-234	339	-639	204	31
107	1363	-482	-82	31
-97	1826	515	-391	31
-86	1232	531	-242	31
166	794	60	21	31
-57	857	-104	89	31
23	152	1	109	31
176	-557	10	-76	31
304	-1168	-363	-85	31
42	-1322	-242	-347	31
-17	-430	499	-460	31
74	80	1027	-61	31
-59	103	443	309	31
-104	-225	-641	585	31
-57	-315	-1092	272	31
-4	-116	-768	-45	31
-280	-37	-1381	69	31
-237	352	-2006	-363	31
1	811	345	-532	31
-67	1161	2220	-278	31
167	694	1560	-55	31
-24	-849	864	557	31
-236	-2159	650	660	31
100	-2110	161	-57	31
-101	-1288	-292	-464	31
9	-367	-194	-197	31
350	381	-122	151	31
93	754	-120	189	31
-1	963	92	204	31
61	618	214	330	31
39	307	39	151	31
-177	420	-540	-134	31
-205	303	-929	-332	31
237	120	-212	-302	31
94	31	1016	239	31
-252	108	970	658	31
-197	234	-199	330	31
-51	114	-827	-76	31
170	-150	-476	-104	31
92	-122	558	-256	31
124	322	803	-555	31
218	875	-50	-495	31
119	1377	-924	116	31
95	1260	-842	347	31
-62	412	205	244	31
-145	-676	433	68	31
-121	-1592	-137	-203	31
-109	-1620	-37	-309	31
-44	-1253	-225	-310	31
106	-1042	-257	-542	31
229	-547	427	-868	31
134	-7	232	-159	31
-42	320	137	776	31
-44	818	-12	663	31
-277	1739	13	29	31
-288	2027	603	-365	31
89	1002	729	-672	31
-66	-521	15	-263	31
239	-1510	-1079	890	31
349	-1765	-653	1338	31
-100	-1677	1	931	31
-138	-983	-244	330	31
-87	-303	-103	-16	31
330	220	-503	-189	31
452	561	-180	-391	31
-247	610	926	-126	31
-658	980	1182	344	31
-309	972	793	482	31
49	627	-117	104	31
254	-51	-526	-315	31
366	-495	112	-260	31
90	-392	881	-422	31
6	182	6	-816	31
324	1317	-866	-577	31
68	1213	195	297	31
130	312	1125	280	31
440	-555	127	-187	31
85	-1384	-1073	-188	31
52	-1295	-1416	-137	31
-27	-332	-1172	85	31
-394	498	4	171	31
-578	574	71	229	31
-87	255	254	131	31
112	-531	802	15	31
-31	-607	238	295	31
32	-12	-763	415	31
-89	215	-1239	-64	31
-14	290	-759	-364	31
-159	-180	112	17	31
-6	-240	1393	117	31
83	7	1170	-76	31
122	61	979	-184	31
492	255	1688	-560	31
508	28	1074	-439	31
714	-252	-319	152	31
642	-392	-1361	249	31
39	-368	-1278	493	31
-398	-337	-1320	871	31
-410	-142	-1137	315	31
-157	352	-81	-490	31
-553	495	309	-634	31
-638	475	-25	-588	31
96	410	225	-192	31
340	221	809	174	31
367	139	1091	287	31
83	339	964	116	31
34	169	-104	-301	31
312	-483	-691	41	31
224	-869	-894	880	31
-204	-783	-817	706	31
-588	-206	225	119	31
-663	229	1459	-67	31
-630	270	1175	-189	31
-109	227	-318	-220	31
207	250	-1152	-111	31
356	311	-1077	122	31
267	254	157	20	31
-71	169	908	-157	31
-371	45	872	-525	31
-705	-93	876	-392	31
-398	-142	904	674	31
25	-119	-239	668	31
-59	-112	-1759	-294	31
-122	-104	-1709	-328	31
292	-67	-1032	-231	31
478	130	268	-780	31
250	463	464	-818	31
-138	475	-98	241	31
71	246	-76	1399	31
402	105	-189	604	31
7	85	-757	-381	31
-274	41	-1305	-302	31
-380	-101	-24	-314	31
152	19	1534	-147	31
623	895	1994	-25	31
277	2915	1675	507	31
295	3856	247	728	31
539	1474	-1225	97	31
316	-2114	-1014	-198	31
237	-4000	-578	-402	31
536	-4000	-635	-516	31
397	-2015	-106	-31	31
96	-480	-66	244	31
15	-201	381	100	31
-206	-295	216	483	31
-469	20	-277	301	31
-648	546	995	-208	31
-403	1253	1908	-99	31
-47	1048	1562	19	31
32	696	488	264	31
183	603	-501	-94	31
156	-135	-879	-59	31
-324	-706	-979	-21	31
-408	-1160	-810	-514	31
-34	-997	-227	-71	31
375	338	-185	211	31
327	1567	-374	63	31
-465	1646	-37	207	31
-512	1191	-298	-44	31
-297	660	-857	-588	31
-379	-502	-622	-593	31
-177	-1805	431	-517	31
-86	-2477	924	-279	31
242	-1614	932	-40	31
551	-46	723	-14	31
211	754	515	169	31
122	891	1230	147	31
280	251	1544	-255	31
304	-147	625	-276	31
425	21	-956	442	31
164	107	-2390	1057	31
39	78	-2835	1155	31
162	-2	-887	743	31
206	-86	1268	240	31
-134	-250	1246	-505	31
-6	-262	641	-449	31
220	-135	2	-135	31
-112	207	-75	-439	31
-128	639	-410	33	31
-282	1126	-610	339	31
-206	1217	-154	64	31
-488	428	-25	-259	31
-690	-152	811	-121	31
-585	-415	1675	-67	31
-616	-369	1178	-84	31
-68	248	-94	139	31
210	410	-830	-157	31
379	243	-1044	-470	31
282	-86	-1086	-492	31
35	-790	-766	157	31
54	-865	146	447	31
-136	-494	1122	260	31
-83	-154	1057	7	31
-120	96	184	-610	31
-29	-63	-593	-403	31
176	-90	-739	176	31
4	-147	-934	690	31
-107	-229	-1510	680	31
-204	-114	-836	655	31
-450	41	481	510	31
-379	412	740	-60	31
84	787	864	154	31
-6	860	797	-145	31
-59	441	1235	-543	31
36	131	1784	-702	31
194	93	463	-868	31
633	258	-1275	-741	31
535	891	-2271	-568	31
205	1185	-1719	394	31
-65	772	-583	1396	31
-32	-380	-529	868	31
33	-1109	26	-482	31
-127	-547	506	-541	31
-241	-255	1045	-357	31
-347	-330	1692	-6	31
-141	-820	1237	602	31
161	-1434	959	436	31
146	-987	578	339	31
-66	-407	-534	9	31
-130	-174	-1326	-7	31
-31	27	-970	132	31
276	140	-1260	13	31
-78	102	-1135	29	31
-545	-1	618	179	31
4	65	766	12	31
325	291	86	-309	31
443	565	-642	-185	31
364	549	-556	-249	31
16	106	-89	-196	31
-39	-232	39	-112	31
143	-133	470	-77	31
355	-144	513	-116	31
232	-263	671	-247	31
-224	-271	-11	-235	31
-442	-314	-154	-278	31
-79	-362	689	-246	31
37	159	919	57	31
-178	1786	525	786	31
-41	2810	107	815	31
206	2180	1029	170	31
29	687	761	-179	31
-157	-718	-209	-432	31
71	-867	-41	137	31
96	180	-207	744	31
205	890	565	19	31
285	-10	-167	-520	31
74	-1087	-1446	-700	31
68	-1433	-2002	-572	31
-453	-1499	-2383	394	31
-628	-1008	-989	913	31
6	-746	-313	716	31
49	-475	486	-96	31
-37	72	926	-400	31
199	111	386	32	31
145	-285	725	2	31
-92	-479	1246	-320	31
-95	-191	1616	-537	31
-124	89	1412	-657	31
-3	69	1638	-290	31
44	-163	1248	395	31
30	-243	-881	337	31
181	-110	-1676	545	31
-72	-36	-1824	425	31
-640	193	-2519	-101	31
-818	432	-2079	794	31
-44	493	-420	441	31
187	735	1416	-665	31
204	787	1138	-166	31
727	537	326	-598	31
780	435	181	-600	31
510	502	-23	213	31
-59	189	655	240	31
-55	-610	350	365	31
89	-1159	-215	357	31
-245	-1179	-729	452	31
-290	20	-1137	-11	31
-4	1231	-202	-662	31
9	934	205	-692	31
-50	634	904	-499	31
155	186	625	-339	31
-144	-597	-538	-115	31
-423	-806	-763	318	31
-340	-648	-947	283	31
-113	-195	179	176	31
29	-190	1109	177	31
-185	-394	1174	298	31
-233	17	1609	442	31
192	843	1521	-64	31
546	1296	192	-434	31
482	446	-1158	-434	31
589	-759	-1380	131	31
350	-1073	-1339	325	31
240	-310	193	-402	31
-6	521	1601	-426	31
-315	500	596	123	31
111	72	-608	660	31
-10	-385	-1156	922	31
-232	-663	-800	459	31
-458	-477	-74	270	31
-335	16	87	188	31
92	26	76	-255	31
-87	-129	143	-44	31
31	-135	-80	-72	31
217	-183	-2	-465	31
103	-105	438	-687	31
78	-62	302	-560	31
-130	59	561	-334	31
-55	322	471	-399	31
31	616	120	-368	31
-306	862	-280	58	31
-343	855	-975	1114	31
-147	242	-643	1124	31
21	-521	-99	134	31
116	-523	453	-391	31
274	-106	545	-366	31
438	36	473	193	31
111	-30	753	225	31
-94	120	494	-292	31
91	303	132	-400	31
179	456	230	-565	31
408	523	-530	-420	31
90	-53	-1525	155	31
-475	-246	-862	516	31
-557	282	1128	380	31
-195	352	2302	262	31
137	86	390	575	31
-37	-165	-753	43	31
-4	-119	-1524	-280	31
269	-132	-1988	301	31
189	-520	-992	296	31
-259	-505	-834	164	31
-151	-150	-63	70	31
-95	436	441	-488	31
-158	1053	907	-771	31
63	1083	852	-815	31
9	436	350	-512	31
-42	-618	-122	516	31
-237	-1076	-420	997	31
137	-1146	52	584	31
340	-1143	242	42	31
205	-770	528	-34	31
367	-760	445	-111	31
-52	-520	157	-350	31
-6	37	89	-272	31
197	208	165	-239	31
-12	279	-167	-77	31
-138	548	-139	-9	31
-184	1351	775	95	31
-26	1537	733	17	31
-114	124	-122	-287	31
-171	-1290	-1292	202	31
-116	-1300	-2187	753	31
-101	-317	-1089	452	31
2	648	932	267	31
24	1030	1105	361	31
285	337	1032	-149	31
228	-910	1361	-687	31
-274	-904	594	-842	31
-90	46	-254	-437	31
-9	413	-291	-166	31
-118	340	375	10	31
145	215	-190	490	31
59	215	-672	289	31
-238	472	-339	-147	31
-203	360	-161	-270	31
71	-97	292	-162	31
-28	-578	-57	-317	31
-76	-669	-473	-354	31
-119	-19	-1042	176	31
-399	148	-1287	603	31
-54	72	-641	883	31
232	534	366	751	31
193	634	989	205	31
327	329	739	-107	31
547	-89	505	-374	31
534	-287	543	-607	31
-56	46	13	-422	31
-656	438	-1341	-84	31
-670	335	-968	267	31
-10	-137	1006	279	31
562	-756	1638	44	31
293	-999	1313	-64	31
170	-367	521	-277	31
37	163	-59	-132	31
-245	628	-518	363	31
-71	1189	-1331	745	31
-138	937	-807	322	31
-5	36	-71	-322	31
127	-980	154	-573	31
162	-1133	610	-850	31
254	-317	444	-456	31
-86	180	-185	314	31
-135	-150	-220	643	31
-177	-713	-445	276	31
-247	-559	-990	126	31
-61	238	-763	507	31
82	1112	-70	329	31
74	1312	615	-223	31
-34	649	847	-404	31
3	-114	728	11	31
-6	-782	187	2	31
37	-837	-304	21	31
-37	-551	-546	304	31
16	-505	-497	-396	31
96	-134	116	-520	31
-74	764	575	-162	31
-53	1606	577	-288	31
-12	1031	211	-148	31
66	-508	21	-202	31
-16	-1321	112	-209	31
-185	-1183	490	-149	31
0	-329	701	-241	31
288	488	295	44	31
138	373	-222	394	31
-121	-250	-311	637	31
-117	-628	-289	705	31
-141	-503	-1075	251	31
-120	170	-1408	30	31
-165	356	-287	109	31
7	367	352	-220	31
50	828	-222	-192	31
-171	990	-422	104	31
38	1040	-417	271	31
237	724	-479	495	31
368	-20	-54	429	31
228	-682	513	-7	31
-32	-852	724	-233	31
99	-812	182	-275	31
0	-877	-227	-235	31
-187	-291	-171	-57	31
-106	224	-71	-44	31
-15	389	110	-265	31
-12	523	365	-362	31
-56	67	732	-191	31
-37	-293	723	-12	31
4	-37	505	141	31
-81	431	453	217	31
-152	798	989	449	31
116	458	1585	552	31
285	-476	942	147	31
156	-1059	-400	-392	31
117	-816	-1796	-230	31
70	-164	-1842	522	31
51	455	-798	310	31
-142	1294	-495	-722	31
-164	2043	26	-613	31
124	1680	494	62	31
10	173	322	-117	31
-50	-1457	159	-194	31
-131	-2544	-532	-239	31
-96	-2021	-1195	-146	31
-64	-682	-682	-37	31
-85	112	224	-227	31
365	1219	530	-161	31
101	1296	616	-127	31
-227	-139	440	-61	31
-32	-1044	146	144	31
84	-1023	-159	573	31
37	-383	-314	330	31
-168	232	214	-378	31
15	195	450	-149	31
116	-300	434	403	31
51	-539	403	597	31
116	-283	77	294	31
32	62	-50	-131	31
-253	390	-93	152	31
-289	672	-152	459	31
-95	804	-143	302	31
-4	491	-172	-205	31
124	182	-367	-511	31
-2	264	-581	-277	31
-28	206	-549	200	31
217	236	-125	707	31
125	271	555	378	31
-44	216	735	-48	31
-77	240	600	-111	31
-31	-192	378	-161	31
222	-537	200	12	31
248	-442	-45	-92	31
-106	-188	-29	-231	31
-187	260	268	-483	31
-57	502	-29	-776	31
-131	520	-287	-922	31
-79	230	-317	-688	31
-37	-232	-129	124	31
-107	-72	-305	425	31
46	463	-413	595	31
59	807	-221	456	31
-91	761	-397	132	31
30	-184	-55	246	31
156	-800	11	138	31
-57	-658	-309	34	31
-39	-1072	-413	-240	31
161	-1204	-562	-419	31
127	-1192	-605	-320	31
-63	-877	-104	69	31
-303	-290	814	398	31
-57	94	849	507	31
16	988	470	402	31
-45	1141	468	-7	31
-61	744	430	-16	31
-300	328	340	-100	31
-107	525	432	-157	31
24	955	500	-56	31
234	-107	434	19	31
349	-977	230	-12	31
75	-959	-147	-222	31
-14	-669	-491	7	31
79	-174	-457	615	31
144	171	-227	607	31
-22	216	-77	197	31
-2	358	48	165	31
-64	491	68	-202	31
-120	172	247	-323	31
-13	-20	54	-149	31
-81	-53	-377	-190	31
14	91	-597	-67	31
9	-56	-656	-49	31
-48	-386	-169	9	31
-7	-356	181	0	31
132	-214	179	62	31
82	54	175	86	31
-34	155	185	-127	31
172	350	81	-240	31
181	754	46	-330	31
219	1036	243	-166	31
-125	833	138	216	31
-303	43	-87	174	31
79	-626	-188	-99	31
-121	-794	-103	-129	31
-77	-325	256	-44	31
67	57	312	-102	31
-98	-235	136	-84	31
-119	-545	185	5	31
-164	-497	-232	-77	31
-87	-206	-343	-49	31
72	-6	58	237	31
234	95	-192	655	31
127	93	-425	478	31
150	167	-787	164	31
270	590	-643	-127	31
102	1165	47	-697	31
29	1453	427	-673	31
-56	970	514	-475	31
-67	-49	483	-256	31
-82	-802	640	186	31
-91	-820	295	338	31
-37	-771	74	-156	31
-36	-823	414	-276	31
9	-862	720	314	31
-17	-1000	571	535	31
-27	-671	244	387	31
-29	-298	-263	117	31
86	157	-824	-83	31
152	948	-790	-202	31
-64	1611	-749	-184	31
-83	2004	-613	106	31
57	1375	-516	821	31
-21	-490	-490	651	31
-139	-1633	-224	-60	31
64	-1400	-11	72	31
102	-1023	147	-61	31
-114	-306	162	-147	31
-49	162	78	-290	31
-88	-66	53	-245	31
-74	-129	51	-36	31
-52	-167	41	17	31
-96	-92	126	151	31
33	187	196	-90	31
11	470	209	-174	31
7	545	165	-206	31
6	285	91	-72	31
23	-61	178	21	31
37	-222	430	134	31
87	-225	651	170	31
161	-561	534	-139	31
37	-330	93	-136	31
-26	438	-368	-34	31
-187	522	-319	-12	31
-235	502	3	25	31
-22	354	-89	22	31
41	13	-94	-103	31
91	347	-21	-107	31
-15	1117	76	161	31
-22	1316	305	357	31
132	612	248	164	31
88	-686	228	-62	31
71	-1589	249	-125	31
59	-1240	-69	-249	31
52	-543	-713	-252	31
91	-157	-798	-124	31
76	49	-229	285	31
-31	89	-19	134	31
24	117	224	-221	31
19	257	260	130	31
-11	792	33	159	31
45	1214	-96	-51	31
-116	805	-227	18	31
-61	190	-41	103	31
-18	40	119	-102	31
21	418	378	-149	31
132	455	493	-2	31
-3	-628	-7	131	31
19	-1040	-413	200	31
71	-469	-522	63	31
161	-876	-508	-58	31
222	-1426	-377	-223	31
31	-1364	63	-274	31
-62	-1144	617	-134	31
-34	-397	302	209	31
-91	107	372	308	31
-182	106	463	163	31
-114	263	-20	280	31
2	420	144	251	31
-21	514	-51	139	31
-64	606	-206	-168	31
-74	616	-345	-137	31
-17	525	-272	167	31
89	242	-172	-66	31
29	-23	-225	-382	31
84	-197	259	-755	31
125	-212	-23	-379	31
49	59	-370	106	31
186	510	-375	163	31
58	895	-117	254	31
-22	752	219	-34	31
37	97	159	12	31
-7	-762	312	12	31
61	-1007	405	-142	31
-109	-394	573	-140	31
-259	-41	766	161	31
-186	-7	628	148	31
-164	89	209	-138	31
-148	95	-423	55	31
-51	132	-1087	169	31
16	195	-1196	427	31
10	175	-676	393	31
52	103	-38	207	31
61	192	430	21	31
24	285	494	9	31
41	52	319	182	31
52	-254	88	-32	31
39	-382	-160	-116	31
-1	-165	-217	-279	31
-76	164	154	-14	31
-2	199	257	305	31
-64	159	39	-21	31
-234	142	186	-226	31
-66	210	252	-99	31
-1	433	402	-42	31
3	679	663	-276	31
36	730	590	-205	31
22	237	7	-148	31
99	-543	-1030	-99	31
97	-862	-1988	2	31
91	-440	-1733	-117	31
102	528	-200	-169	31
127	1274	764	-174	31
114	824	1275	-34	31
53	-588	1128	156	31
11	-1821	622	324	31
-107	-1840	518	297	31
-131	-741	88	234	31
6	49	159	121	31
-31	242	161	-166	31
-130	525	-55	-86	31
-111	405	-400	-4	31
-109	28	-716	-88	31
-33	-108	-117	67	31
97	-342	174	329	31
111	-450	177	400	31
61	-411	-323	249	31
59	220	-1306	77	31
37	1388	-1002	-164	31
40	1584	-615	-119	31
48	396	-187	-255	31
-1	-1027	796	-349	31
61	-1342	576	-63	31
232	-530	195	-242	31
148	493	-111	260	31
-66	609	-455	602	31
-80	-264	-478	120	31
-170	-609	360	21	31
-127	-411	1345	59	31
6	-270	871	-51	31
-10	-123	180	-279	31
71	-16	-244	-380	31
102	150	132	-550	31
106	131	215	-430	31
94	153	122	317	31
103	234	395	760	31
59	229	328	425	31
-2	224	559	124	31
60	153	611	12	31
-24	103	411	-377	31
-99	0	-342	-473	31
-71	-4	-880	-159	31
-86	129	-882	327	31
-127	224	-646	663	31
-137	150	-29	192	31
-103	-72	-385	-468	31
-71	-256	-1325	-156	31
-21	-44	-819	344	31
31	391	674	111	31
93	241	956	-272	31
177	-109	443	-366	31
221	-227	-654	-96	31
167	-152	-944	211	31
0	-41	-100	224	31
-111	-76	-376	-172	31
-66	11	-257	-212	31
69	74	139	-239	31
-42	239	451	-204	31
-205	480	683	194	31
80	363	493	206	31
106	22	378	131	31
41	-207	-115	-176	31
114	-96	-378	-337	31
106	172	56	-326	31
183	170	605	-227	31
-21	64	452	-41	31
-19	112	505	132	31
-22	-54	472	177	31
-56	-274	146	201	31
104	-369	11	510	31
79	-512	-175	493	31
7	-119	290	216	31
-143	413	42	-41	31
-117	215	-560	-15	31
-152	-89	-638	-105	31
-178	235	-423	-216	31
-116	732	367	-136	31
-116	774	440	-133	31
-52	25	-305	-202	31
-53	-1156	-1175	-487	31
77	-1381	-468	-126	31
161	-927	340	775	31
103	-408	619	946	31
61	52	1004	410	31
150	53	185	223	31
140	207	483	18	31
-9	337	555	-119	31
-19	273	289	-26	31
-19	229	156	54	31
-106	540	-61	141	31
-264	1360	251	-371	31
-176	1075	-452	-428	31
-92	-328	-585	-18	31
-67	-1156	-501	45	31
51	-1274	156	109	31
57	-776	59	127	31
43	-154	-1257	166	31
22	-212	-1026	249	31
-7	-55	-326	-1	31
-104	280	708	-488	31
-71	268	380	-403	31
49	417	-387	-221	31
159	285	24	-359	31
304	132	-88	-239	31
300	-39	-109	75	31
254	-235	-437	175	31
145	-188	-328	7	31
63	-250	-74	-48	31
-46	92	-23	-250	31
-127	359	869	-381	31
100	322	1095	-222	31
248	251	601	-85	31
156	91	-782	121	31
-27	71	-1600	358	31
-156	-21	297	312	31
-119	-25	1275	129	31
-66	-37	503	-56	31
-46	-94	-150	-285	31
-25	-50	-668	-58	31
4	-39	-176	232	31
-32	55	335	17	31
-114	124	453	-52	31
-131	124	390	-115	31
-39	76	615	-284	31
-2	55	520	470	31
-225	118	-492	527	31
-428	145	-904	220	31
-313	106	-984	518	31
-149	26	-786	184	31
-54	25	152	-30	31
-54	2	828	-254	31
54	-69	1081	-134	31
334	-76	901	220	31
316	-63	623	381	31
280	-32	220	625	31
281	-16	-815	737	31
201	34	-711	427	31
37	220	478	-440	31
-177	516	1080	-1125	31
2	781	-548	-981	31
107	734	-2034	-180	31
-207	-41	-1115	379	31
-218	-1058	-22	582	31
-31	-1473	1381	307	31
-19	-994	1102	342	31
67	-437	-523	20	31
-70	-348	-1440	-781	31
-159	14	-653	-545	31
36	254	938	-928	31
35	255	754	-1033	31
-220	206	241	-909	31
-236	111	-608	-1429	31
3	122	-88	-417	31
27	35	374	1583	31
36	69	156	2103	31
116	47	140	1621	31
276	24	-726	1019	31
123	105	-832	-420	31
15	352	-678	-988	31
209	843	67	-891	31
126	908	-147	-617	31
-82	322	-579	84	31
-149	-616	217	400	31
62	-1253	1105	49	31
65	-960	1951	-567	31
44	-193	1626	7	31
44	44	876	995	31
82	17	-576	833	31
220	166	-1761	946	31
-20	163	-1507	916	31
-107	132	-1198	-42	31
-212	76	179	-687	31
-298	148	1360	-908	31
-278	220	1514	-465	31
-330	224	1280	-1362	31
-232	248	-49	-2735	31
-309	1	-1109	-1518	31
-231	-164	-1203	-172	31
-20	-39	-693	778	31
41	121	686	1863	31
21	69	160	2019	31
61	96	-1219	2289	31
176	142	-606	1515	31
255	18	-16	-318	31
379	24	351	-442	31
154	-1	581	133	31
-122	-24	1792	-154	31
-53	-21	2054	-567	31
-1	-50	684	-928	31
36	-76	-546	-804	31
142	-99	-1743	-415	31
195	-40	-1729	42	31
73	78	-1508	806	31
-33	58	-298	850	31
-83	-119	791	177	31
-97	-76	728	-610	31
-62	-34	1097	-961	31
-49	-86	941	-79	31
112	-22	638	702	31
101	-131	420	-543	31
79	-273	174	-1356	31
263	-286	-16	-473	31
240	-263	-142	695	31
187	-167	-1464	1553	31
24	64	-2185	1124	31
-223	359	-1187	912	31
-383	385	-54	263	31
-397	244	1160	-138	31
-147	191	1241	29	31
-184	74	-71	826	31
-187	41	-1336	1011	31
104	99	-844	-1449	31
287	56	-4	-2420	31
353	-50	866	-2369	31
171	-177	1865	-1310	31
174	-126	684	457	31
167	27	-1548	611	31
-32	102	-1020	-206	31
-28	71	774	193	31
-59	88	561	334	31
-112	131	203	-26	31
-290	-39	424	649	31
-282	-116	401	498	31
32	-50	215	1497	31
89	-24	-638	1319	31
51	-17	-764	207	31
139	-62	563	-549	31
92	-42	966	-1144	31
-26	37	-508	-162	31
-21	101	-1072	-36	31
1	79	828	-497	31
-54	67	1034	-340	31
-268	21	-277	319	31
-332	-182	-773	660	31
-76	-187	-1013	664	31
-19	24	-142	47	31
-86	88	68	-307	31
128	-57	-314	-750	31
227	19	177	-1570	31
179	192	1182	-1212	31
118	4	1305	-65	31
35	-131	-236	1402	31
-106	-155	-1301	1497	31
-116	-273	-700	1073	31
-102	-265	-38	1068	31
-197	7	-656	737	31
-127	254	-882	119	31
-31	194	15	-522	31
207	157	710	-911	31
141	264	816	-1496	31
-68	346	608	-1144	31
-51	188	156	-497	31
-6	-160	-63	-233	31
136	-374	408	295	31
170	-283	1253	233	31
258	-59	1109	520	31
202	-67	-13	1006	31
194	-57	-747	-95	31
86	0	-572	-977	31
-382	-33	89	-964	31
-211	-56	-380	-913	31
15	-59	-466	-550	31
-56	-44	-496	295	31
74	-79	-972	949	31
-94	21	167	259	31
-250	131	433	-344	31
-330	157	-414	855	31
-381	147	-607	1459	31
-250	22	67	-175	31
-129	24	549	-429	31
166	167	269	700	31
537	191	491	154	31
665	63	471	103	31
504	-1	479	630	31
351	-20	513	490	31
157	-26	227	863	31
-9	21	-404	121	31
-15	37	-1246	-981	31
-81	22	-938	-828	31
-102	-24	78	-684	31
-156	-23	656	-460	31
-169	-27	345	99	31
-58	-29	-727	492	31
-39	-7	-941	538	31
-19	-25	62	29	31
59	-30	556	46	31
39	-51	-302	1014	31
-74	-28	-809	1073	31
-118	-36	483	-28	31
-200	-43	1541	-1179	31
-251	32	1539	-926	31
-183	88	1024	-512	31
-62	94	123	-717	31
75	9	-358	-368	31
78	-27	-272	-285	31
97	-9	-259	-12	31
96	-31	-293	497	31
21	-72	-556	305	31
75	-35	-1058	-91	31
146	7	-618	-108	31
11	-37	-129	20	31
-103	8	-242	-4	31
219	48	-401	-279	31
355	57	-129	-673	31
-4	47	380	-827	31
-217	42	497	-417	31
-309	12	590	-144	31
-207	-73	437	451	31
-94	-15	211	796	31
-151	114	-107	-284	31
-106	251	-507	237	31
-132	265	-543	1201	31
-12	165	-227	914	31
148	-112	319	228	31
108	-490	497	-164	31
159	-377	844	588	31
136	-72	1000	716	31
54	6	21	456	31
-32	-67	-1213	504	31
-97	-174	-1206	276	31
-77	-99	-93	-417	31
-186	52	287	-416	31
-143	92	261	-335	31
-12	34	-310	-971	31
100	119	-634	-1408	31
195	119	570	-1550	31
155	-14	674	-468	31
154	35	-324	1426	31
0	-46	-436	2323	31
-6	-112	108	1076	31
229	7	516	-152	31
257	101	68	-237	31
42	43	-195	-776	31
29	-1	-91	-700	31
164	133	-86	-523	31
130	107	-42	-664	31
162	66	-9	-26	31
97	76	214	265	31
80	21	186	305	31
57	35	179	62	31
-52	-4	123	-214	31
-78	-17	-92	-205	31
-125	-8	-418	-358	31
-151	-13	-205	228	31
-246	11	408	1001	31
-197	-21	310	665	31
-129	-33	793	170	31
-77	-12	774	444	31
12	20	-252	-230	31
34	22	-220	-807	31
91	-2	-111	-537	31
-6	-2	-263	-385	31
89	-2	-654	217	31
119	-5	-844	197	31
-92	-10	807	-204	31
-117	-22	2473	94	31
21	-40	1318	532	31
44	-10	-1360	1	31
-69	14	-2258	-390	31
16	12	-1085	96	31
-82	19	-65	324	31
-126	-21	-86	340	31
-62	-17	27	-270	31
-35	48	-78	-332	31
42	190	-325	-57	31
41	320	-535	-241	31
33	171	-865	-78	31
41	-93	-123	14	31
159	-306	636	153	31
33	-325	543	117	31
26	-101	427	-2	31
72	-51	313	-249	31
-34	-62	-560	-487	31
-78	5	-797	-462	31
-139	-29	1281	-200	31
-60	9	2151	795	31
-82	21	931	1190	31
17	35	646	267	31
46	86	1155	-125	31
7	47	961	69	31
81	83	-1042	285	31
62	64	-2088	519	31
129	108	-1337	-242	31
83	417	-793	-545	31
50	426	-405	-374	31
82	263	-136	-76	31
74	28	81	184	31
34	-699	493	-39	31
-11	-836	689	49	31
-62	-243	149	-51	31
-188	-30	-536	5	31
-52	11	-677	-56	31
46	46	51	-35	31
-34	45	631	122	31
44	72	440	93	31
-24	19	223	56	31
-106	14	-355	-133	31
71	23	-691	-161	31
73	26	-706	-144	31
52	24	-275	69	31
152	21	654	170	31
99	24	81	44	31
51	9	-554	-174	31
62	34	265	-245	31
142	33	886	56	31
-133	38	548	29	31
-382	61	106	103	31
-196	102	175	381	31
-174	176	111	144	31
-76	175	-211	-232	31
69	224	-791	-228	31
34	220	-806	-204	31
8	198	490	-147	31
42	750	872	-36	31
51	1018	544	-124	31
59	330	628	-88	31
76	-400	80	75	31
65	-1452	-585	294	31
-16	-1864	-328	166	31
-61	-732	316	9	31
-91	-62	21	71	31
-141	-6	-71	15	31
91	130	-9	45	31
91	62	-247	-1	31
70	103	-107	-21	31
186	115	-71	-61	31
34	86	259	-107	31
61	99	143	-24	31
7	62	-718	99	31
27	94	-1056	245	31
71	87	49	151	31
46	84	1213	64	31
149	122	1157	-179	31
56	238	419	-279	31
-9	388	-354	473	31
-17	364	453	504	31
-2	184	1031	210	31
43	-124	-664	763	31
-15	-357	-2146	215	31
-143	-196	-1486	-583	31
-121	-16	-284	-726	31
13	61	-290	-714	31
-97	204	-282	-321	31
-200	90	-227	-370	31
-195	-99	91	-241	31
-219	-187	521	-59	31
-75	-178	360	17	31
123	-60	435	-4	31
212	11	494	-167	31
-8	59	640	-86	31
-165	89	479	36	31
97	82	-177	231	31
194	33	-297	160	31
107	36	-117	206	31
116	122	-192	197	31
119	237	-148	119	31
-26	241	22	124	31
-230	72	-4	98	31
-147	-120	-447	184	31
-7	-325	6	199	31
17	-267	1769	291	31
82	-35	2298	251	31
-114	-32	490	174	31
-81	-7	-924	115	31
162	26	-824	87	31
6	7	-494	191	31
177	45	-161	6	31
224	19	-357	-322	31
59	6	-648	-398	31
107	7	-884	-201	31
67	2	-497	-37	31
9	34	-314	-29	31
-92	39	-262	27	31
-84	30	172	64	31
-129	13	170	-212	31
-103	9	317	-545	31
-139	-4	251	-154	31
-232	-22	219	141	31
14	8	124	91	31
195	82	141	149	31
36	239	161	-101	31
80	470	40	-135	31
171	639	72	21	31
39	295	156	56	31
130	-455	305	64	31
73	-543	184	77	31
29	-71	114	91	31
13	120	67	137	31
-117	-212	10	181	31
-77	-708	-202	24	31
-111	-588	-387	-120	31
-132	-117	-4	-125	31
-98	118	405	-108	31
-90	125	321	-72	31
-51	96	28	-39	31
-11	28	-345	154	31
88	-15	-325	294	31
77	154	185	327	31
25	252	-146	373	31
191	145	-607	227	31
195	190	-119	125	31
60	337	106	-32	31
54	19	180	-169	31
-17	-495	351	-206	31
-157	-588	420	-187	31
-167	-407	373	-87	31
39	-98	3	19	31
-7	74	-345	111	31
-127	35	-427	16	31
-70	86	-40	-57	31
-107	80	112	-111	31
71	68	443	-151	31
44	101	625	-106	31
-159	71	135	-139	31
26	159	-119	-239	31
221	301	-605	-161	31
162	289	-671	30	31
129	120	-5	295	31
35	-57	135	368	31
-19	-255	-502	-45	31
123	-240	-521	-146	31
52	6	376	-104	31
4	34	543	-74	31
-48	22	-347	175	31
-149	75	-761	117	31
-141	44	-129	-23	31
-102	35	191	-57	31
-67	61	354	-51	31
-192	156	302	-6	31
34	222	61	2	31
325	217	337	19	31
26	150	356	66	31
-102	-112	230	70	31
-44	-219	1	90	31
82	-79	-367	29	31
194	-67	-616	-134	31
-34	-113	149	-389	31
-123	-97	1300	-603	31
29	-34	958	-110	31
-27	72	-16	447	31
-107	135	-291	359	31
-97	-67	-435	189	31
-115	-202	-1153	230	31
32	352	-1278	107	31
-41	835	-395	-212	31
-62	702	236	-127	31
66	27	40	-11	31
45	-907	218	-27	31
101	-962	1170	-9	31
180	-544	1022	39	31
134	-299	96	97	31
-55	-21	-136	-3	31
-50	-14	56	-69	31
68	-1	-86	-85	31
157	71	-380	4	31
-39	68	-461	36	31
-254	109	-344	29	31
-51	67	270	9	31
-36	54	365	-14	31
-150	62	-81	-46	31
-208	95	16	-146	31
82	106	353	4	31
189	57	260	118	31
-72	62	-207	201	31
-16	61	-826	270	31
-44	58	-766	156	31
82	42	-170	83	31
157	25	12	16	31
124	39	307	-57	31
112	52	377	-234	31
-49	46	296	-217	31
-7	33	205	-14	31
-89	28	20	-19	31
-153	22	145	-6	31
-120	80	132	-21	31
-81	222	87	-16	31
-17	242	47	64	31
-89	25	112	44	31
-69	-199	187	-66	31
49	-261	67	-227	31
19	4	-108	-347	31
-10	299	-588	-284	31
156	140	-804	162	31
60	-149	160	485	31
-71	-320	1573	420	31
123	-194	1612	400	31
220	9	-526	259	31
132	-164	-2161	66	31
-102	-127	-1212	-118	31
-169	254	-293	-253	31
-62	466	-142	-104	31
-49	606	734	-47	31
-111	656	1640	-55	31
-120	372	540	76	31
53	-62	-955	140	31
42	-327	-463	-46	31
-27	-434	172	-185	31
19	-820	200	-67	31
51	-1209	-100	-39	31
-67	-928	-368	-51	31
86	-256	-148	1	31
385	215	-121	10	31
131	99	41	-19	31
265	-31	101	-2	31
250	51	141	24	31
-435	-151	139	52	31
-721	-92	-51	85	31
-117	107	-140	1	31
240	274	-284	-167	31
-109	821	-389	-278	31
7	1444	22	-194	31
-84	1509	936	-69	31
-109	708	987	192	31
-2	-395	408	384	31
-76	-1293	-272	186	31
120	-1134	-156	35	31
101	-398	556	-99	31
160	-234	731	-102	31
81	47	672	17	31
-21	324	-179	7	31
59	413	-1115	82	31
149	298	-1458	44	31
-11	86	-1396	-123	31
-172	-4	-679	-182	31
234	-257	156	-41	31
-13	-264	126	167	31
-402	-242	76	228	31
-42	-273	579	151	31
-51	-168	681	17	31
-213	-60	513	-34	31
42	3	393	-28	31
235	-1	221	-47	31
75	82	102	-112	31
26	94	272	-100	31
202	104	353	-49	31
226	116	-17	-61	31
120	92	-353	-3	31
62	126	-355	46	31
108	153	-177	120	31
25	251	-18	186	31
-209	365	66	147	31
-308	476	184	130	31
-125	375	325	43	31
-1	-95	200	-26	31
16	-557	-41	-21	31
69	-691	-9	-31	31
19	-444	-166	82	31
-26	-74	-538	-5	31
76	114	-620	-362	31
167	92	-314	-299	31
136	-147	-340	-32	31
143	-283	-827	51	31
199	-30	-831	93	31
78	115	-31	62	31
-313	141	778	93	31
-224	261	884	41	31
-14	241	942	-38	31
-54	128	768	96	31
36	-41	99	188	31
-119	-26	-513	102	31
-82	125	-501	1	31
-61	34	23	39	31
-124	-40	121	134	31
-44	22	138	6	31
57	-61	418	-384	31
135	-172	882	-520	31
37	-193	884	-102	31
89	-222	48	43	31
87	-160	-380	-186	31
26	74	-381	109	31
-15	294	-654	402	31
-29	343	-513	34	31
-16	392	-106	-315	31
-109	101	-376	5	31
-112	-459	-378	136	31
-104	-529	-157	31	31
-74	-351	245	107	31
26	-78	615	51	31
61	144	222	106	31
64	194	369	136	31
37	392	-172	155	31
-37	498	-995	107	31
166	496	-555	6	31
236	342	-392	-99	31
2	54	-363	-48	31
-32	-224	15	56	31
64	-341	180	-36	31
136	-176	305	-56	31
37	-233	674	-49	31
-67	-279	806	-7	31
-99	-107	294	-6	31
-89	-66	-145	32	31
-89	-21	-144	-28	31
-36	-26	8	-4	31
22	-17	80	252	31
-22	-23	-61	315	31
24	-71	-249	94	31
147	-61	-674	-333	31
187	-119	-714	-379	31
26	-154	-64	-73	31
-205	-207	220	26	31
-147	-184	476	56	31
164	-35	1330	108	31
-22	38	1699	75	31
-99	125	743	16	31
117	277	-523	45	31
94	270	-1053	170	31
-220	104	-1240	190	31
-494	355	-1169	-6	31
111	833	-325	-131	31
119	900	269	-57	31
43	640	390	-154	31
245	-165	524	-409	31
84	-931	22	-271	31
195	-781	-533	-96	31
-360	-447	-482	-174	31
-167	-297	769	-126	31
350	-243	1331	-11	31
174	-160	328	158	31
96	175	-174	329	31
-25	458	-185	274	31
-21	539	47	101	31
-399	297	164	2	31
-220	-225	79	-159	31
80	-593	-54	-188	31
-220	-163	-323	-108	31
-42	619	-878	-93	31
179	595	-912	197	31
113	21	-248	354	31
36	-345	896	389	31
-149	-225	1318	471	31
-200	144	257	32	31
252	387	-556	-391	31
362	333	-615	-574	31
146	169	-365	-357	31
87	-121	-239	386	31
-43	-352	59	359	31
32	-179	388	92	31
-172	-468	319	-38	31
-230	-937	222	-97	31
-115	-1000	-294	231	31
-105	-658	-1105	6	31
-49	17	-228	-54	31
-211	325	889	116	31
49	544	738	106	31
127	543	497	102	31
-2	273	121	-25	31
-41	128	238	-36	31
-125	16	-13	-106	31
-89	94	-115	-138	31
161	188	124	60	31
352	343	-107	367	31
124	475	-325	244	31
59	164	-678	-196	31
54	-6	-456	-330	31
136	317	180	-169	31
-16	225	643	-157	31
-254	-391	337	-209	31
-137	-865	-110	29	31
-74	-645	-615	119	31
197	116	-1092	-13	31
-84	429	-620	-116	31
-659	353	-496	-47	31
5	251	242	7	31
258	143	846	-119	31
-48	324	631	-96	31
247	230	670	-7	31
189	-543	672	-36	31
120	-920	818	-23	31
-46	-767	180	-14	31
-19	-784	-484	-67	31
139	-480	-645	-179	31
-97	212	-390	-197	31
-132	728	-72	325	31
114	935	-81	632	31
52	551	30	242	31
-252	-2	5	192	31
32	-412	39	134	31
78	-606	-34	-216	31
-89	-216	383	-341	31
12	-7	632	-354	31
29	62	-112	77	31
71	281	-468	551	31
177	272	-450	574	31
224	268	-257	338	31
144	255	-257	-12	31
0	227	-646	-3	31
-254	124	-366	68	31
-110	22	621	-106	31
-95	-14	909	-353	31
-195	24	189	-492	31
61	643	-414	-127	31
-207	1634	-159	-51	31
-186	2302	600	-201	31
-89	1861	540	-10	31
-106	-103	261	-83	31
319	-2132	-46	-220	31
257	-2825	-179	-314	31
-106	-2295	275	-160	31
-347	-1304	67	136	31
302	-621	-124	189	31
475	-107	-514	512	31
123	259	-919	406	31
224	316	-506	-42	31
-169	111	-395	21	31
-297	-277	-56	-94	31
-119	-303	518	-122	31
196	-19	531	-87	31
-151	140	64	-122	31
-433	410	-124	-75	31
-42	737	305	-106	31
21	545	347	62	31
267	267	285	270	31
270	696	236	328	31
279	1258	-17	-17	31
238	1104	-108	-216	31
10	319	-486	-56	31
-86	-719	-872	-31	31
-133	-1139	-24	87	31
73	-997	1332	108	31
37	-843	1432	-60	31
-46	-282	835	-81	31
-7	52	-387	207	31
-48	147	-1257	272	31
-52	232	-1108	118	31
40	67	-857	85	31
-33	130	-275	-341	31
153	154	44	-545	31
87	106	385	-260	31
-299	112	808	159	31
-120	-60	981	492	31
-82	-160	732	176	31
14	-3	49	-127	31
239	216	-517	-167	31
324	275	-753	-164	31
202	226	-1016	71	31
-146	357	-1228	221	31
-175	476	-788	352	31
167	142	-631	124	31
194	-214	97	-74	31
-329	-490	1278	-10	31
-422	-677	1303	-231	31
-252	-623	1007	-105	31
-294	-629	637	17	31
-125	-331	325	-2	31
71	-63	-280	30	31
359	-7	-689	-24	31
517	263	-542	161	31
470	469	-804	226	31
182	699	-460	163	31
-172	961	460	128	31
207	1211	546	126	31
34	889	202	76	31
-168	25	411	-98	31
-33	-513	719	-224	31
-249	-912	808	-502	31
-344	-783	653	-742	31
-553	-401	406	-771	31
204	-359	-733	-117	31
361	-147	-1991	833	31
-107	43	-1455	410	31
162	220	-91	-260	31
-21	311	612	184	31
132	262	4	364	31
190	377	90	388	31
106	387	492	402	31
62	103	49	1	31
31	-410	-51	63	31
234	-891	-301	19	31
-47	-1075	46	-240	31
-247	-734	14	6	31
-370	-146	-272	368	31
-397	51	95	119	31
-149	108	-198	-648	31
-281	254	141	-1028	31
-708	363	258	-652	31
-299	550	-621	48	31
432	687	-538	417	31
455	712	397	504	31
422	450	776	385	31
388	196	558	319	31
57	127	310	192	31
-150	-77	229	-71	31
156	-153	37	-54	31
428	-218	-175	-32	31
324	-213	-122	23	31
212	-168	240	-46	31
-133	-209	567	117	31
-156	-146	-12	14	31
57	-129	-719	-328	31
-124	97	9	-116	31
-274	337	28	-42	31
-111	189	-1591	92	31
51	-41	-1232	34	31
31	-269	187	83	31
184	-477	573	384	31
76	-300	123	80	31
-208	-67	234	-493	31
-129	-149	829	-617	31
102	-127	199	-119	31
119	-81	-443	241	31
-567	-67	-392	227	31
-966	-29	484	156	31
-640	43	1193	142	31
-377	267	804	27	31
109	493	92	-104	31
388	438	4	-37	31
137	-4	37	-3	31
497	-351	94	66	31
896	-634	46	87	31
652	-681	-129	65	31
402	-121	170	248	31
-222	539	-201	254	31
-626	948	-1048	38	31
-402	739	-811	-155	31
130	333	651	-252	31
809	363	764	-40	31
937	283	-308	-25	31
515	51	-583	-95	31
363	-287	-23	36	31
301	-405	132	-270	31
-618	-93	-357	-535	31
-1123	-23	-289	-507	31
-551	119	28	-102	31
-379	249	274	888	31
-208	7	602	1089	31
-54	-468	814	4	31
7	-1030	-30	-633	31
362	-973	-1042	-367	31
413	-486	-1350	-217	31
861	-106	-297	149	31
864	285	931	340	31
229	668	1043	26	31
-113	824	497	97	31
-227	561	-492	265	31
-121	86	-435	194	31
-468	-119	-108	-80	31
-482	-82	364	-152	31
-279	-22	129	-93	31
-366	93	-314	-222	31
-332	220	370	47	31
-108	280	706	156	31
-202	69	591	59	31
-432	-159	-27	70	31
2	-296	-526	110	31
-191	-397	-1224	218	31
-189	-257	-1215	-457	31
516	-234	-101	-821	31
493	-254	293	-64	31
250	-169	327	462	31
240	-274	-256	95	31
205	-344	-2	-300	31
107	-244	933	13	31
109	-84	1077	321	31
-337	165	1832	216	31
-404	373	1443	-89	31
42	436	-909	64	31
69	455	-2595	193	31
-33	464	-1438	41	31
-326	305	141	39	31
-329	143	-709	-46	31
-98	167	-921	540	31
-31	22	-392	845	31
109	-411	-138	32	31
141	-481	300	-560	31
141	-176	372	-851	31
48	-133	593	-587	31
-252	-182	303	392	31
-168	-230	500	821	31
-1	-202	1039	-37	31
14	-59	1152	-346	31
92	43	1117	-222	31
-142	332	780	-137	31
-403	630	-106	137	31
-187	511	-1488	-358	31
122	313	-1658	-175	31
51	420	-863	285	31
9	292	-116	407	31
12	23	-365	-84	31
52	-159	-704	-552	31
261	-434	-189	-387	31
262	-465	578	104	31
314	-356	1215	751	31
226	-32	706	254	31
66	308	-335	-9	31
60	255	-795	-6	31
-97	209	-788	60	31
-146	93	-538	363	31
-124	-131	42	271	31
-93	-131	972	-64	31
-157	29	1320	-495	31
-186	99	397	-498	31
-50	43	-367	-573	31
-1	-326	-460	-94	31
-12	-724	-763	742	31
68	-377	-1238	477	31
37	282	-435	68	31
-90	603	858	118	31
-145	391	1155	-141	31
-472	91	1158	-500	31
-10	153	658	-255	31
395	69	284	-9	31
246	-3	205	-139	31
733	-86	-187	191	31
454	-332	-362	141	31
121	-418	-237	-312	31
-34	-349	136	-310	31
-483	-117	371	-390	31
-715	47	321	1	31
-953	101	408	327	31
-580	-2	257	254	31
-200	-16	-199	437	31
37	217	-322	464	31
736	258	53	104	31
897	97	834	-276	31
465	-209	916	-388	31
628	-349	-73	-653	31
460	-224	-1529	-444	31
147	51	-1948	798	31
363	97	-1016	1134	31
-54	-260	-787	-94	31
-299	-458	157	-408	31
-563	-553	1512	-318	31
-566	-335	1451	-120	31
17	127	994	502	31
-31	381	430	297	31
14	549	-338	119	31
-17	422	-550	-51	31
116	220	-420	200	31
189	249	-686	405	31
-11	307	-516	148	31
159	471	-321	146	31
-159	513	-693	-108	31
-57	281	-977	-475	31
334	167	-669	-520	31
-90	50	-72	-62	31
-295	-27	254	47	31
-211	-34	380	25	31
-123	-185	-59	-211	31
204	-260	-535	-518	31
220	-301	-317	237	31
245	-370	283	720	31
220	-360	798	-141	31
-92	-224	757	-520	31
51	16	490	81	31
81	102	222	-32	31
135	-7	-30	-307	31
272	-111	338	-574	31
-1	-129	719	-455	31
-254	-71	1022	387	31
-191	-16	1506	770	31
30	96	991	615	31
21	270	61	156	31
-22	413	75	-6	31
-99	355	-633	234	31
-242	-32	-2186	235	31
-250	-31	-2203	-54	31
-92	347	-867	-38	31
4	501	335	256	31
-91	344	618	-76	31
-457	-360	747	-376	31
-608	-905	991	174	31
-141	-682	508	110	31
18	-375	-648	-358	31
-21	-191	-1283	-93	31
302	-63	-1577	-133	31
636	-79	-924	-92	31
315	-36	-173	101	31
-257	-75	-239	-125	31
-137	-25	518	144	31
27	148	811	103	31
4	251	665	-156	31
-110	296	508	-215	31
-144	162	437	-308	31
-76	81	172	-2	31
-42	45	-194	181	31
190	99	-347	362	31
162	-18	-689	242	31
70	-340	-162	-265	31
-31	-200	558	-387	31
-14	-104	886	-269	31
115	-305	491	-119	31
39	-351	-146	86	31
-46	-444	-32	218	31
-234	-413	255	174	31
-79	156	583	240	31
164	851	589	237	31
-45	1251	415	-202	31
-175	1061	-86	-660	31
13	313	-767	-598	31
212	87	-980	420	31
124	150	-1040	1125	31
49	-49	-237	144	31
22	-77	983	-238	31
-247	-215	1614	75	31
-430	-240	1291	130	31
-149	-199	33	317	31
333	-200	-831	-81	31
681	-6	-975	-125	31
585	94	-750	-116	31
237	-17	-1069	-449	31
-69	-298	-1011	-461	31
-170	-501	501	-151	31
144	-675	1305	314	31
-180	-777	967	362	31
-427	-609	963	-280	31
-252	-206	956	-548	31
-347	19	298	92	31
-244	31	-81	476	31
-234	463	-116	142	31
-161	829	122	109	31
-227	840	-508	448	31
24	845	-1833	203	31
370	709	-1529	304	31
211	341	-746	397	31
612	212	4	229	31
506	373	550	-223	31
59	190	348	-950	31
57	-25	203	-776	31
69	-198	94	236	31
386	-456	-63	1113	31
105	-396	-552	450	31
-195	-455	-902	34	31
-420	-546	-545	-247	31
-564	-230	-106	-691	31
-284	-84	534	-157	31
6	-91	1256	-169	31
612	-31	1137	-394	31
458	-35	728	-610	31
-38	37	703	-483	31
-12	82	1145	156	31
27	18	1335	547	31
246	-232	698	407	31
207	-338	-408	26	31
149	-61	-1736	99	31
299	36	-2144	105	31
295	-39	-1975	61	31
290	-37	-906	-36	31
-128	55	515	-425	31
-505	321	651	-416	31
-479	552	877	127	31
-177	445	491	653	31
210	159	-369	922	31
146	-184	-806	771	31
12	-606	-798	63	31
-81	-560	-406	-336	31
-157	-192	-34	-307	31
-210	-12	571	-424	31
-335	22	749	-252	31
-22	107	701	57	31
113	388	446	44	31
-101	580	413	-159	31
93	540	403	-74	31
-135	63	84	108	31
-295	-718	31	4	31
-93	-1005	-368	-86	31
-167	-666	-660	-97	31
-155	-196	-585	-170	31
-205	-40	-333	-229	31
-150	12	293	-30	31
9	100	510	204	31
37	165	258	84	31
102	626	514	-59	31
277	1274	930	77	31
129	1552	631	51	31
132	749	37	-42	31
202	-727	-444	109	31
-400	-1313	-897	203	31
-229	-1049	-1084	307	31
119	-423	-768	201	31
-215	20	-273	-523	31
-167	-59	114	-553	31
-37	61	325	-87	31
17	26	355	-174	31
23	-329	320	-153	31
-12	-408	172	-145	31
100	-548	58	140	31
19	-546	444	477	31
-102	-55	922	280	31
53	385	1012	154	31
203	518	1246	305	31
187	777	931	420	31
195	1106	-220	244	31
41	1178	-1638	-31	31
-11	785	-2472	-211	31
126	244	-1884	-345	31
-92	31	-1397	57	31
6	-323	-971	228	31
152	-363	97	-272	31
40	2	891	5	31
-32	88	889	186	31
-252	54	449	-46	31
-342	-32	310	27	31
-276	-113	241	-34	31
139	-311	70	-121	31
368	-512	54	-356	31
245	-499	37	-225	31
0	-478	-202	104	31
-72	-387	66	-3	31
314	-257	813	-136	31
177	-128	875	132	31
-22	211	287	269	31
-82	433	-257	29	31
-141	355	-71	-80	31
-76	204	174	-335	31
-103	-88	25	-430	31
-81	-172	167	-228	31
-251	52	24	357	31
-220	106	125	808	31
42	-18	295	294	31
85	-164	31	-24	31
270	-199	352	391	31
261	-124	540	212	31
-19	-40	539	-311	31
-44	81	609	-347	31
-144	242	-51	-256	31
36	280	-1341	49	31
224	78	-2120	-57	31
197	-86	-1629	-49	31
250	-222	-370	-106	31
11	-287	705	-488	31
-49	-96	483	56	31
56	59	-49	342	31
136	38	97	-60	31
46	12	540	-197	31
-239	46	395	54	31
-233	32	-227	548	31
-170	-54	-413	332	31
72	-62	-541	-74	31
142	183	-167	67	31
18	268	182	48	31
144	-27	258	325	31
10	-109	228	92	31
-76	-26	263	-307	31
-39	-192	229	-235	31
72	-286	-282	-254	31
78	92	69	-2	31
-96	387	392	-87	31
-209	352	599	-102	31
-275	370	1128	-82	31
-76	318	709	-196	31
53	468	-215	-31	31
-200	839	-1346	247	31
-317	872	-1404	75	31
129	624	-734	-86	31
45	-67	-371	245	31
-124	-1192	339	-2	31
255	-1858	516	-96	31
286	-1723	464	-182	31
-24	-951	522	-239	31
-106	-117	407	64	31
182	385	279	387	31
59	1104	146	708	31
-181	1383	96	384	31
-96	913	67	172	31
86	317	31	-81	31
26	-477	-132	-307	31
-72	-1028	-274	-202	31
-17	-1308	-186	-361	31
-26	-1037	-9	-174	31
84	-36	26	72	31
21	404	176	-122	31
146	313	417	-182	31
169	49	397	-79	31
-52	-290	77	-94	31
55	-217	-420	-172	31
179	-52	-886	14	31
61	21	-906	306	31
-171	131	-217	396	31
-97	274	179	249	31
-152	120	129	-44	31
-171	0	157	-48	31
23	179	177	-59	31
-89	372	464	-126	31
-164	703	556	-135	31
-64	755	181	-324	31
110	403	-169	-136	31
229	152	-710	613	31
208	-157	-1365	721	31
77	-302	-465	43	31
-144	66	844	-166	31
-164	265	486	-374	31
7	159	149	-344	31
112	-42	-190	-14	31
153	-144	-87	-23	31
67	-155	333	141	31
-10	-243	171	108	31
28	-257	248	113	31
-47	-401	121	124	31
-52	-250	176	-18	31
43	3	46	54	31
142	-34	112	32	31
74	49	426	9	31
-59	53	116	-8	31
50	37	-269	95	31
18	37	-459	42	31
24	26	-252	-161	31
34	51	146	-304	31
22	43	440	-315	31
98	69	234	302	31
-86	43	-404	287	31
-91	18	-576	-86	31
-19	-3	-431	-41	31
-52	36	-110	23	31
-49	107	444	166	31
-92	181	694	-166	31
-86	375	946	-314	31
-53	349	766	-219	31
4	23	17	-51	31
42	-231	-418	-167	31
-6	-364	-789	-244	31
-122	-140	-878	-55	31
-56	248	-672	-130	31
132	212	-464	397	31
214	93	-352	449	31
171	-255	-304	64	31
19	-676	-49	68	31
-32	-480	68	-194	31
-158	-84	222	-144	31
-322	150	203	132	31
-51	322	53	-52	31
181	271	28	-86	31
-3	-131	31	344	31
-133	-374	219	284	31
-160	-576	398	-69	31
-61	-691	467	-65	31
37	-322	331	-43	31
97	16	169	50	31
21	377	233	158	31
-205	653	324	254	31
65	698	102	237	31
249	888	-49	16	31
64	734	-280	2	31
71	229	-664	81	31
-2	44	-582	-36	31
-56	-111	-210	-185	31
-114	-257	196	-400	31
38	-119	391	-257	31
257	102	370	2	31
140	202	349	-271	31
63	-59	338	-17	31
-87	-239	297	143	31
-56	-458	204	-94	31
-6	-550	-83	-57	31
47	84	-396	8	31
96	318	-367	79	31
49	-50	-79	40	31
45	-453	612	78	31
-36	-359	1356	66	31
36	427	838	56	31
26	1001	-511	101	31
171	956	-1478	156	31
253	212	-1901	204	31
-74	-561	-1168	196	31
-157	-754	-304	31	31
-159	-588	295	-182	31
-225	-411	692	-60	31
-125	-393	314	75	31
-50	-330	349	189	31
27	-184	343	173	31
-19	11	215	4	31
-126	37	-115	-102	31
122	17	-586	-186	31
299	60	-224	-107	31
66	63	159	-102	31
-131	106	293	-36	31
-44	92	146	58	31
-79	255	-87	78	31
-72	609	151	116	31
-8	614	227	25	31
-78	189	-36	-209	31
-10	-174	-106	-353	31
42	-362	-120	-394	31
-6	-487	-94	-349	31
-51	-407	271	292	31
96	-186	595	569	31
82	10	470	138	31
22	29	282	13	31
88	-1	277	-24	31
49	18	175	25	31
7	14	-44	65	31
-36	71	-284	-82	31
134	79	-284	-242	31
147	68	242	-133	31
-37	71	573	47	31
-32	54	279	-96	31
-9	49	-202	-11	31
-6	44	-506	134	31
-111	49	-247	213	31
-122	33	-309	72	31
-27	46	-598	-417	31
-109	87	-342	-191	31
-24	117	-521	379	31
77	154	-726	363	31
-49	192	-337	131	31
30	15	-2	-104	31
92	-274	340	-79	31
71	-173	423	169	31
34	2	290	147	31
0	-57	251	1	31
113	-79	122	-87	31
98	-20	5	-22	31
-6	107	-52	-21	31
-87	133	275	57	31
-101	51	593	180	31
-114	-49	39	169	31
-144	-280	-493	114	31
-69	-428	-408	-148	31
-56	-359	-372	-131	31
-88	-159	133	-28	31
-81	225	603	-159	31
14	561	244	-119	31
89	682	-112	-17	31
14	560	-59	-57	31
13	149	203	-52	31
94	-94	152	-41	31
65	-177	35	-87	31
2	-247	76	-32	31
27	-142	-46	-16	31
105	-87	-210	-24	31
47	57	-233	64	31
-126	418	-52	121	31
-147	592	139	121	31
3	340	36	94	31
12	115	-228	58	31
-150	129	-208	41	31
-44	218	-287	-11	31
76	208	-189	-17	31
5	-288	385	29	31
33	-829	626	1	31
124	-923	403	-111	31
177	-583	117	-204	31
146	-52	18	-146	31
99	147	-41	207	31
2	283	-34	357	31
6	384	68	176	31
-6	329	232	178	31
-147	318	437	82	31
-86	182	381	91	31
14	42	137	199	31
-19	-591	-289	-19	31
-64	-1272	-857	-293	31
10	-720	-1102	-329	31
121	-17	-974	-374	31
108	-121	-458	-292	31
119	-197	-240	2	31
106	29	-469	-41	31
99	117	383	65	31
64	104	1538	64	31
3	108	1731	-147	31
44	137	1158	-141	31
15	171	101	-24	31
-41	204	-638	222	31
-137	293	-773	292	31
-155	317	-235	171	31
-20	295	68	-23	31
46	274	-10	44	31
-54	59	101	102	31
-167	-321	-68	-24	31
-39	-312	-225	-194	31
57	70	-233	-399	31
-6	325	-231	-5	31
9	408	-398	795	31
13	413	-747	677	31
29	362	-400	-12	31
36	-141	262	34	31
32	-646	457	-9	31
169	-618	608	-281	31
81	-418	637	-402	31
-103	-94	486	-364	31
-23	37	211	19	31
-35	35	-282	75	31
-94	36	-628	-17	31
-148	-17	-809	-36	31
-254	66	-548	-174	31
11	117	134	-196	31
200	155	501	-208	31
129	167	331	-31	31
109	121	106	171	31
-20	62	111	32	31
66	12	41	11	31
23	40	-17	272	31
-12	73	374	344	31
71	67	901	92	31
-75	37	911	49	31
-52	95	558	21	31
74	511	17	59	31
88	1452	-732	187	31
-92	1996	-1232	34	31
-39	1720	-1032	-69	31
-10	876	-552	-367	31
-84	-1189	-111	-557	31
-15	-2791	337	-257	31
-88	-2518	149	70	31
-10	-1967	34	430	31
34	-1000	388	482	31
-16	-109	338	170	31
-6	-204	-9	13	31
47	219	-513	-279	31
81	775	-715	-245	31
55	332	-333	70	31
185	-286	75	-10	31
164	-222	595	201	31
-184	-219	1208	395	31
-205	-305	1227	204	31
-7	32	433	170	31
-31	272	-588	5	31
-18	536	-1581	-305	31
19	688	-2115	-548	31
76	375	-1069	-508	31
61	51	29	-337	31
-61	43	470	-204	31
-77	69	1075	-12	31
-7	302	824	34	31
47	711	620	525	31
85	570	831	583	31
86	154	1017	-70	31
29	213	1393	54	31
20	117	1203	287	31
3	-395	525	86	31
-77	-428	-516	29	31
-151	-450	-1599	155	31
-145	-529	-2206	150	31
-69	-92	-1790	191	31
-24	116	-396	289	31
-15	52	286	96	31
36	140	117	-168	31
84	175	-365	-385	31
57	139	-1189	-375	31
49	-5	-501	-200	31
37	-99	781	-71	31
89	-57	1341	7	31
128	46	1574	-70	31
86	257	664	-30	31
178	292	-242	-17	31
140	190	-205	-44	31
-137	117	562	52	31
-133	-190	1227	134	31
-4	-442	1111	174	31
-107	-184	26	-7	31
-120	167	-670	-53	31
-167	-11	-827	-231	31
-119	-485	-551	-319	31
74	-438	656	-82	31
-26	-124	-124	4	31
-48	-17	-864	64	31
114	87	-1235	-247	31
133	184	-1771	-7	31
39	184	-350	1059	31
56	86	411	901	31
97	110	338	-592	31
-61	150	-269	-785	31
-122	146	-164	-29	31
-135	179	939	101	31
-146	158	759	258	31
-88	185	947	265	31
-74	285	603	211	31
66	478	-7	4	31
84	521	122	-166	31
2	288	316	-64	31
34	-210	524	-174	31
32	-724	-152	-228	31
93	-645	-81	-179	31
127	-430	-438	-154	31
29	-444	-809	-547	31
19	-270	-1146	-775	31
-43	-12	-1633	-151	31
-33	99	-465	552	31
92	132	-232	755	31
36	35	-352	740	31
-38	-117	41	269	31
-121	-105	556	-475	31
-120	-5	860	42	31
-207	196	262	465	31
-343	330	523	352	31
-91	186	997	159	31
159	6	1246	-290	31
108	7	1093	-272	31
121	221	-14	-219	31
147	282	-685	199	31
152	12	-1273	-71	31
199	-130	-266	-525	31
165	-162	470	-392	31
103	-268	472	-417	31
-17	-112	1504	-285	31
-36	114	1407	-580	31
-98	87	956	-509	31
-205	90	-545	545	31
-100	151	-1875	1113	31
-16	164	-2040	808	31
40	168	-1042	857	31
62	285	747	950	31
32	127	1166	-79	31
-26	-481	1260	-920	31
-26	-826	161	-369	31
21	-865	-1501	757	31
16	-628	-1361	897	31
81	-76	-628	-816	31
1	294	-538	-826	31
-159	486	238	-677	31
-247	561	789	-1738	31
-108	418	326	-1306	31
165	263	-332	-402	31
178	99	-2448	1640	31
244	-146	-2165	2178	31
277	-227	606	1527	31
169	26	1113	909	31
161	456	828	-7	31
69	471	184	-592	31
-39	-7	337	-390	31
66	-242	661	278	31
97	-157	649	-294	31
16	-116	565	-382	31
51	-81	-215	-360	31
29	-18	37	504	31
-40	16	611	927	31
-106	51	1023	-87	31
-187	130	699	33	31
-169	131	-656	-349	31
34	-207	-1706	-1126	31
92	-417	-480	-1507	31
-34	-126	1901	-998	31
-222	14	1887	284	31
-275	152	349	1433	31
211	280	-1109	1157	31
299	-75	-1624	19	31
-78	-229	-270	1088	31
-71	-110	2329	888	31
54	-42	2557	-422	31
187	96	412	-791	31
201	137	-1583	-1348	31
16	59	-3088	-909	31
-80	11	-1850	-835	31
-41	21	417	-574	31
15	17	2006	662	31
-31	26	1287	1250	31
-56	86	-959	1024	31
-109	142	-1686	26	31
-103	114	-1734	-1239	31
-8	19	-548	-1753	31
8	-9	-64	-1494	31
101	-39	-253	-573	31
31	-104	84	-10	31
-31	-144	349	588	31
47	-139	638	1083	31
-6	-46	-330	314	31
-64	94	-309	970	31
-155	258	645	1403	31
-269	355	579	375	31
-299	212	63	801	31
-82	-129	-233	616	31
270	-411	169	-19	31
352	-448	11	264	31
54	-170	24	2	31
-156	84	558	-592	31
-2	119	265	-1237	31
-17	138	-56	-1097	31
-220	61	391	191	31
-205	17	645	1177	31
7	-13	388	722	31
283	-33	503	29	31
353	52	533	-105	31
187	83	-51	-689	31
127	45	-1319	-376	31
-33	-81	-1156	-224	31
-161	-87	-92	-432	31
-114	-29	-240	-159	31
-203	-22	-50	-980	31
-229	-9	54	-1022	31
-212	-26	751	211	31
-280	-36	2013	1156	31
-309	-39	1749	816	31
-207	-23	139	741	31
-179	-27	-708	1254	31
-165	-12	765	1415	31
-55	-36	407	1402	31
-23	-154	-2822	-537	31
71	-171	-3658	-1953	31
248	-17	-1636	-3314	31
376	101	253	-2963	31
370	150	88	262	31
187	345	-204	1623	31
-2	556	1311	1585	31
181	372	1940	1039	31
310	-74	775	1258	31
99	-372	200	450	31
18	-505	448	-289	31
-81	-312	19	394	31
-166	127	-457	514	31
-120	250	-640	687	31
-1	192	-623	-485	31
-23	140	-315	-1367	31
-182	48	281	-1317	31
-150	76	1840	-1021	31
-36	-12	1834	-778	31
141	-74	-143	4	31
239	-69	-2336	698	31
154	-130	-2649	378	31
7	-38	62	989	31
-92	49	593	1387	31
-108	101	391	145	31
-168	102	956	-422	31
-250	20	-85	85	31
-199	-14	37	-436	31
1	22	587	-756	31
77	59	445	-695	31
25	-35	688	-569	31
11	-128	476	-498	31
9	-137	-377	369	31
-20	-144	-819	1351	31
-483	-158	231	77	31
-1270	-135	1594	-1365	31
-991	-16	-360	-668	31
174	100	-2951	282	31
783	134	-2211	624	31
1066	70	334	885	31
1019	22	1025	1010	31
408	19	250	1482	31
135	12	647	472	31
234	76	474	-560	31
-38	-4	239	-325	31
-116	-100	855	-740	31
243	-67	1112	-1261	31
430	-40	331	-943	31
362	74	-48	-229	31
270	72	-659	-36	31
260	73	-1809	-4	31
86	103	-1428	247	31
-17	26	-419	259	31
-77	56	-154	-530	31
-441	59	-93	21	31
-874	59	422	1026	31
-721	47	448	147	31
113	-29	381	140	31
505	-11	314	132	31
225	21	498	-873	31
26	-24	668	-1199	31
69	-29	467	-444	31
-29	-15	362	400	31
-222	-42	-96	872	31
-14	-31	116	2004	31
-45	-34	261	1116	31
-206	-13	-72	-325	31
-157	49	95	412	31
-152	29	427	498	31
34	-62	317	-54	31
-47	-52	-919	-406	31
-70	6	-1224	-131	31
13	-27	-769	-397	31
62	-11	-1267	-688	31
147	6	-637	-755	31
26	-6	358	-1424	31
17	-11	1020	-680	31
97	-21	1426	277	31
188	-8	778	831	31
117	-7	-17	1574	31
39	18	-91	667	31
-13	21	293	-1191	31
-103	-8	152	-1054	31
-106	-12	-324	16	31
-148	-19	-544	606	31
-49	-17	-486	826	31
-29	24	-664	957	31
-48	39	-152	374	31
-68	12	597	-195	31
-176	-6	515	-100	31
-109	25	654	-273	31
-86	89	482	-275	31
-85	57	175	-399	31
28	15	-940	-226	31
125	19	-1938	-257	31
50	9	118	76	31
-76	1	1204	181	31
-23	-31	-30	-510	31
6	-42	-24	-391	31
-152	-76	445	29	31
-177	-84	221	1016	31
5	-11	-135	900	31
25	29	-209	-767	31
56	27	381	-845	31
172	17	211	139	31
242	19	-663	-228	31
152	2	-122	-988	31
32	32	356	-814	31
146	45	185	-171	31
-58	-15	86	35	31
-214	-30	-185	473	31
-114	-52	-613	1602	31
-240	-30	-812	1401	31
-140	-9	-751	12	31
-51	-7	199	-331	31
83	56	978	-137	31
325	133	189	-463	31
388	92	86	-1	31
467	-27	693	976	31
320	-29	1568	614	31
97	14	1034	-620	31
26	72	-901	-618	31
-7	72	-1188	315	31
-1	13	-855	429	31
-4	-27	-333	80	31
-60	-7	-390	-44	31
-129	57	-405	-393	31
-169	24	389	-378	31
-187	26	526	-174	31
-211	-17	557	-266	31
-249	-32	135	-103	31
-214	26	-478	-442	31
-220	21	-686	-749	31
-269	-16	88	-735	31
-179	-102	763	-358	31
-122	-130	211	1035	31
1	-116	-704	1915	31
288	-41	-973	690	31
441	66	628	-593	31
337	170	707	-48	31
250	223	-283	153	31
340	141	-19	-737	31
155	17	406	-872	31
-4	-92	967	189	31
80	-91	751	874	31
-97	-46	174	230	31
-188	-24	-400	-666	31
-132	-25	-669	-577	31
-139	-57	-862	-299	31
-89	-71	-924	-69	31
-46	-37	265	369	31
57	27	1024	103	31
110	27	601	-184	31
64	-2	270	518	31
50	-39	-77	647	31
32	-66	-384	-297	31
-16	-14	-212	-403	31
-26	79	-152	-39	31
-17	38	-353	262	31
-47	-96	-355	816	31
-39	-36	-175	808	31
-32	76	34	197	31
-180	108	280	-201	31
-284	93	665	-291	31
-63	40	546	-423	31
27	-2	-77	-273	31
-60	-82	-117	-415	31
121	-72	376	-616	31
102	-9	723	615	31
35	36	142	1695	31
97	68	-432	884	31
4	-13	-538	-149	31
-24	-11	-834	-449	31
30	36	-1035	-311	31
130	1	-977	-217	31
117	-6	280	-670	31
84	-17	907	-633	31
27	12	385	-452	31
-57	18	-430	154	31
-59	-6	-1283	687	31
-162	57	-661	19	31
-166	103	-41	-244	31
24	38	606	-279	31
22	-26	1214	-171	31
-62	-30	1152	121	31
71	-42	942	-2	31
112	-34	-40	-457	31
137	-20	-593	-727	31
194	-28	200	-317	31
97	-82	1636	1192	31
-17	-151	1134	1870	31
-46	-74	-1116	633	31
9	41	-2228	-478	31
-152	92	-1735	-1340	31
-228	144	-86	-579	31
-97	67	676	339	31
-111	16	442	533	31
-135	86	151	1219	31
-235	97	-356	197	31
-98	106	-732	-1000	31
294	50	-249	-900	31
397	11	360	-445	31
260	15	465	150	31
183	-29	1145	306	31
199	-5	711	266	31
125	-18	149	-188	31
44	-45	645	-650	31
8	-26	388	-331	31
-10	-8	-212	227	31
-87	-9	-702	-109	31
-165	-28	-458	-567	31
-22	26	-107	409	31
2	41	-252	1029	31
-220	-12	-102	347	31
-228	-34	-493	32	31
-59	-58	-635	301	31
-31	-47	-252	48	31
-32	-3	32	-480	31
17	7	485	-716	31
50	-9	209	-620	31
86	-12	-186	-392	31
107	26	-139	349	31
113	71	519	1371	31
44	22	1003	533	31
8	-64	380	-120	31
-1	-96	231	656	31
-82	-54	310	324	31
-109	42	-217	98	31
-122	28	-611	-72	31
-79	-36	-707	-407	31
-116	-25	-936	-415	31
-184	-13	-599	-337	31
-51	83	-110	35	31
-19	305	481	21	31
1	343	1091	-57	31
123	57	460	-133	31
87	-148	-10	-80	31
110	-237	123	-34	31
140	-363	187	-93	31
81	-194	176	-59	31
-4	-29	485	-72	31
-142	-93	746	59	31
-46	-3	367	66	31
-3	64	-206	-27	31
-55	33	-1057	-40	31
4	12	-1175	22	31
-49	-6	-289	275	31
-36	17	-47	206	31
56	-11	-200	-119	31
56	-11	-319	-102	31
-17	9	-27	-108	31
69	12	594	-85	31
119	26	281	-79	31
-41	65	-111	201	31
-11	97	210	322	31
-1	49	59	237	31
-59	27	-340	249	31
-30	31	89	-54	31
-38	22	592	-37	31
-14	9	-13	-223	31
25	13	-691	-193	31
89	36	84	-20	31
91	33	350	-73	31
26	2	-320	286	31
17	-14	98	172	31
14	19	771	-375	31
20	31	954	-487	31
48	22	4	-172	31
81	-6	-1595	-269	31
56	-5	-1283	-204	31
15	17	-121	235	31
-2	-6	641	29	31
11	-12	1272	199	31
-11	-30	922	360	31
-41	-4	237	157	31
10	32	-531	533	31
8	27	-787	61	31
-23	12	-424	-492	31
-48	-7	-357	-214	31
-91	14	-67	176	31
-105	4	239	525	31
-133	-4	322	282	31
-177	6	-733	126	31
-121	18	-909	-19	31
3	22	483	-488	31
17	-5	763	-566	31
41	9	250	-94	31
225	-5	-214	229	31
321	9	127	642	31
235	52	731	402	31
134	12	587	-185	31
86	-32	170	265	31
58	-60	-25	63	31
-17	-55	-701	-332	31
-129	11	-976	-765	31
-235	36	6	-1001	31
-184	-9	851	-282	31
-79	-8	785	-209	31
-47	24	-187	-116	31
-6	11	-916	-1	31
11	-4	-763	282	31
84	-1	-528	941	31
136	5	-1027	316	31
89	18	-971	-402	31
27	15	398	-152	31
3	-24	787	-167	31
2	-14	344	-116	31
8	14	949	88	31
16	6	1541	22	31
-93	-14	1270	290	31
-125	-33	613	481	31
-87	0	-11	340	31
-158	49	-405	250	31
-138	72	-533	86	31
-84	95	-115	-10	31
-57	46	-349	111	31
1	-52	-511	98	31
112	-86	-61	128	31
109	-94	-63	78	31
-33	-66	-46	-26	31
104	4	-22	68	31
157	44	-23	98	31
81	26	-66	-27	31
129	-35	89	-290	31
20	-27	456	-336	31
22	2	985	-384	31
-16	11	939	-329	31
-63	29	-928	-39	31
-52	11	-2463	-5	31
-89	8	-1618	93	31
-12	21	-773	262	31
-35	56	12	77	31
-81	101	1290	12	31
-20	69	995	223	31
-19	44	56	87	31
-14	-7	-265	-182	31
68	-56	16	-407	31
26	-52	-411	-289	31
12	-73	-358	-26	31
72	-131	937	-39	31
64	-292	1307	73	31
60	-212	719	91	31
18	144	-111	57	31
-28	268	-31	185	31
-14	129	127	308	31
-2	-72	-296	387	31
-57	-7	-477	553	31
-49	112	-547	413	31
36	56	-593	-254	31
14	81	-453	-581	31
-6	44	156	-685	31
-4	-2	347	-557	31
-22	0	288	-181	31
86	-1	418	-138	31
91	0	252	74	31
31	-17	499	200	31
65	-3	833	339	31
66	11	259	351	31
54	37	-825	-112	31
-27	4	-1341	-214	31
-116	-24	-447	-181	31
-121	-6	713	-166	31
-99	-12	467	-161	31
-104	-11	-241	-129	31
-69	-21	-255	-31	31
-24	-9	233	-77	31
-21	46	874	290	31
2	88	245	736	31
32	47	-1275	840	31
63	1	-975	785	31
94	7	-221	156	31
91	2	-257	-535	31
32	13	373	-477	31
43	-4	841	-329	31
84	-1	383	-302	31
-57	6	165	-49	31
-184	7	22	57	31
-93	49	-528	93	31
-84	34	-340	-47	31
-87	18	808	-126	31
-26	-25	1143	-24	31
30	-136	549	-34	31
147	-152	325	138	31
58	-97	97	286	31
-38	-41	-399	238	31
14	88	-798	303	31
101	114	-904	245	31
156	26	-408	-164	31
64	30	32	-285	31
97	45	-79	-235	31
79	12	42	-211	31
-105	-18	-304	-82	31
-182	5	-987	17	31
-184	75	-661	86	31
-62	255	291	-86	31
100	345	1180	-383	31
166	89	1035	-297	31
54	-112	-330	146	31
-41	-247	-1162	430	31
61	-400	-214	352	31
57	-231	659	40	31
79	-34	202	-53	31
119	-42	-412	-102	31
100	-11	26	-111	31
154	16	371	12	31
26	-6	-375	-29	31
-112	4	242	59	31
-65	18	1283	40	31
-30	14	777	-49	31
-108	11	40	-52	31
-98	29	-50	-120	31
30	32	227	-182	31
-33	30	358	-170	31
-94	19	306	-94	31
-154	22	-247	16	31
-383	36	-773	77	31
-468	16	-946	-41	31
-189	12	-567	-187	31
104	22	83	-48	31
233	38	129	493	31
330	37	256	559	31
138	1	410	214	31
76	2	403	234	31
237	51	168	42	31
132	210	-174	-196	31
39	289	-417	-182	31
-144	138	-610	-176	31
-507	33	-290	-177	31
-517	41	-4	-125	31
-191	16	62	-55	31
160	-64	-407	-126	31
314	152	-561	77	31
240	368	368	374	31
222	139	348	432	31
207	-57	-27	164	31
204	-155	394	-124	31
319	-254	874	99	31
231	-427	437	212	31
4	-500	-453	304	31
-24	-380	-657	228	31
-120	-357	278	-631	31
-177	-132	1300	-870	31
16	15	94	-263	31
64	-16	-1539	-20	31
-61	77	-1268	79	31
-57	29	-185	-67	31
-37	-42	234	-122	31
-62	-31	90	141	31
-89	96	-290	29	31
-72	122	-352	54	31
37	2	658	27	31
-61	17	1018	-17	31
4	55	347	36	31
295	76	-103	-20	31
129	88	257	74	31
-306	99	214	39	31
-590	86	-501	-4	31
-482	29	-74	-3	31
-157	12	265	84	31
182	36	730	113	31
385	37	1505	-12	31
234	4	921	35	31
91	17	-876	222	31
-57	64	-1787	323	31
-91	74	-1132	154	31
-40	62	-989	-5	31
-87	67	-102	-45	31
-46	63	890	-72	31
97	36	488	45	31
309	32	480	56	31
492	-37	432	-142	31
541	-227	154	-198	31
393	-219	-312	-12	31
237	17	-516	170	31
102	216	-124	220	31
-7	304	-17	142	31
-119	126	-2	-54	31
-169	44	218	-223	31
-89	81	254	-317	31
-232	64	-89	-380	31
-291	94	-257	-150	31
-171	-12	-335	271	31
-219	-45	-618	217	31
-204	-61	-42	-91	31
-140	-157	1300	-103	31
9	-208	1054	62	31
96	-40	158	253	31
-11	180	-127	-2	31
-24	98	-816	-251	31
14	-142	-1388	27	31
215	-196	-1159	41	31
259	53	9	38	31
-46	74	440	8	31
-42	-12	438	-89	31
-50	3	437	-101	31
-233	-17	278	-235	31
-187	27	72	7	31
-76	-39	-152	130	31
-116	-99	410	-7	31
-165	-116	645	49	31
139	-77	902	15	31
281	133	1101	-6	31
-115	279	674	83	31
-468	120	-774	287	31
-729	-81	-1305	342	31
-1018	-190	-233	200	31
-904	-262	-167	216	31
-568	86	-427	64	31
80	395	-787	-126	31
906	288	-1376	-64	31
1089	348	-1483	-106	31
618	450	10	96	31
117	426	1584	457	31
-160	250	1270	242	31
-608	15	774	-91	31
-512	-154	-12	104	31
229	-492	4	-142	31
542	-489	475	-851	31
337	-133	182	-1151	31
228	-32	164	-769	31
847	-120	505	392	31
1122	-94	601	537	31
621	-410	-584	92	31
336	-865	-1109	267	31
124	-480	-616	186	31
-57	124	-417	142	31
-130	180	-781	106	31
-1332	-106	-365	-78	31
-3561	-150	684	-170	31
-3677	22	578	-275	31
-1037	-1	245	-345	31
1439	-27	232	-138	31
1994	-61	127	61	31
1681	-76	-44	89	31
1732	-63	578	320	31
1241	-82	621	479	31
932	-16	-231	157	31
1016	229	-997	-289	31
611	450	-513	-100	31
463	404	603	533	31
460	337	397	640	31
275	388	896	10	31
-27	415	1175	-273	31
-112	195	-516	6	31
-96	17	-2005	301	31
-87	203	-1320	317	31
-214	335	567	-297	31
-442	180	780	-595	31
-257	-138	-516	-498	31
-233	-216	-593	-376	31
-189	-61	-247	66	31
-204	-134	-50	245	31
-651	-145	355	123	31
-540	-123	434	-12	31
-411	-119	709	-210	31
-605	-67	480	-424	31
-315	6	-526	-467	31
488	194	-1082	-9	31
728	6	-295	322	31
-244	15	701	265	31
-277	441	455	367	31
129	172	65	402	31
-1136	-243	791	328	31
-2512	226	1069	184	31
-1627	686	297	-186	31
762	355	-857	-516	31
1192	29	-1603	-279	31
974	-453	-975	123	31
1212	-1046	6	311	31
951	-821	385	287	31
863	-330	383	94	31
471	-360	587	137	31
414	-351	395	91	31
376	-159	-268	-22	31
-101	-333	-530	-453	31
-437	-242	-194	-597	31
-183	45	77	-239	31
-9	139	269	-102	31
-329	111	858	151	31
-155	-17	1022	86	31
27	-37	203	191	31
-151	-147	-897	184	31
-136	-104	-807	-64	31
10	-44	-200	-36	31
-129	-99	661	-134	31
39	-38	1211	167	31
-57	45	59	470	31
-338	189	-706	370	31
31	322	-381	-171	31
41	521	274	-493	31
51	709	3	-95	31
79	852	-12	325	31
-121	798	625	100	31
-379	438	-341	-324	31
-207	215	-1337	5	31
71	71	-724	71	31
-254	41	696	154	31
-198	217	845	613	31
-420	287	-153	345	31
-138	2	-1200	-272	31
344	-471	-716	-715	31
139	-510	215	-460	31
295	-342	30	152	31
21	-544	231	295	31
34	-591	226	102	31
142	101	387	114	31
-191	166	455	8	31
-169	-396	288	-179	31
-45	-552	636	152	31
-79	-927	712	206	31
-1	-887	-170	69	31
71	-222	-884	273	31
-383	574	-97	360	31
-330	761	458	169	31
-207	296	29	-146	31
-408	24	-532	-312	31
-281	-280	-448	-281	31
-460	-142	458	-299	31
-329	175	655	-208	31
448	422	-856	51	31
1228	722	-2653	57	31
1270	824	-2062	-108	31
552	1219	107	-56	31
334	1222	362	201	31
337	439	275	179	31
72	-230	917	307	31
-7	-726	636	267	31
-39	-1018	207	-277	31
-92	-822	1157	-338	31
-56	-500	2310	-277	31
-50	-425	1387	-78	31
-49	-409	279	-116	31
-202	-313	134	-279	31
-315	-267	382	-204	31
-14	-211	527	-280	31
148	-187	106	-352	31
241	-167	-31	-340	31
42	-96	-202	291	31
-483	-1	-1020	849	31
-386	151	-1620	440	31
-180	242	-1060	-140	31
-309	248	-253	-2	31
-145	270	-639	174	31
-94	377	-1175	-36	31
-93	513	-1686	177	31
76	589	-792	377	31
182	572	773	-119	31
232	227	1105	-295	31
7	-356	1376	262	31
-413	-84	844	635	31
-666	853	319	193	31
232	1020	26	-272	31
688	905	22	-173	31
73	982	188	-48	31
114	-26	4	146	31
246	-1962	-26	71	31
167	-2332	-122	-86	31
-28	-1096	-87	-214	31
37	-465	-564	-358	31
77	-481	-536	-226	31
-86	-220	356	29	31
6	256	369	207	31
-256	126	-643	114	31
27	-369	-563	54	31
600	-295	1078	74	31
101	62	1401	130	31
-17	635	658	240	31
-121	1505	-67	226	31
-220	1275	-201	-14	31
68	236	1444	-372	31
-297	-277	2676	-417	31
-255	-782	1043	79	31
110	-916	-1767	377	31
69	-566	-2664	-172	31
-32	-317	-2277	-384	31
21	-55	-1868	-30	31
176	279	-1248	-184	31
61	771	-189	8	31
-360	1433	685	88	31
-210	2024	477	-304	31
29	1946	-5	284	31
89	907	347	270	31
109	-569	869	-139	31
-51	-1658	95	126	31
-64	-2212	-333	89	31
-185	-1944	136	-81	31
227	-1406	296	-485	31
253	-1124	173	-427	31
-141	-529	-583	270	31
2	-295	-904	409	31
129	-131	447	99	31
130	112	2304	1	31
-651	189	2334	-146	31
-452	527	1762	-356	31
310	881	1837	-93	31
-86	1475	-383	457	31
220	1717	-2770	773	31
260	1500	-2060	1219	31
193	1489	-966	1037	31
275	1161	-152	149	31
-197	283	164	-141	31
0	-771	-524	-620	31
71	-1333	-1154	-732	31
68	-1462	-1598	-429	31
132	-1592	-778	-825	31
-204	-1217	442	-1028	31
-94	-541	1175	-718	31
307	-343	1620	-128	31
38	-323	1219	199	31
-185	-316	299	129	31
-109	-287	-749	224	31
-207	-6	-819	164	31
-197	345	575	-9	31
-92	693	1059	51	31
158	792	340	305	31
278	567	638	685	31
171	239	121	231	31
-62	123	-994	-7	31
-87	250	-748	488	31
-61	302	-84	247	31
-121	493	-7	148	31
324	518	-464	114	31
392	133	-427	-82	31
-30	-194	-186	-226	31
-169	-400	672	-271	31
-204	-553	1299	-160	31
33	-462	771	-193	31
51	104	255	6	31
-392	1096	217	-40	31
-191	2525	152	-28	31
419	2656	-912	42	31
379	673	-2208	158	31
318	-1007	-2070	266	31
143	-2083	-605	172	31
-530	-2071	641	154	31
-650	-504	992	-606	31
-235	532	422	-672	31
59	19	195	63	31
191	-902	1664	-209	31
254	-1270	2102	-356	31
69	-1490	77	93	31
-207	-810	-1099	623	31
-139	-57	-162	665	31
162	-454	419	-37	31
329	-677	265	-149	31
-69	-162	178	91	31
-195	725	228	186	31
70	650	59	136	31
-147	216	-759	-64	31
230	227	-942	-14	31
438	-112	-800	-38	31
382	210	-590	292	31
651	473	121	164	31
312	317	458	-182	31
79	532	-262	-158	31
-204	494	-964	-477	31
71	412	-817	42	31
597	367	-521	112	31
-38	71	-654	-808	31
-501	-311	-872	-427	31
-475	-325	-530	631	31
-336	-106	734	477	31
-332	50	2067	-47	31
-701	157	751	-69	31
-577	220	-169	201	31
-611	259	1340	290	31
-833	73	2132	-402	31
-170	38	2603	-307	31
700	48	406	51	31
1199	2	-1977	-111	31
1116	68	-2011	132	31
593	-31	-1334	154	31
340	-93	-13	-345	31
352	-100	397	-754	31
156	-117	788	91	31
-289	-117	-583	657	31
-856	-17	-645	49	31
-981	132	593	101	31
-284	19	-371	51	31
349	-152	-494	-312	31
619	-203	-190	-4	31
528	-118	346	384	31
15	54	427	858	31
-219	217	-29	483	31
-18	385	-621	-279	31
304	550	-928	21	31
218	610	423	386	31
101	300	1257	633	31
-60	-72	688	449	31
-573	-203	-20	-3	31
-601	-277	-11	-438	31
-414	-290	-606	-1001	31
-267	-270	-1308	-1134	31
365	-224	-703	-855	31
561	20	245	-42	31
331	270	352	624	31
302	-36	219	280	31
104	-343	790	229	31
9	-182	453	326	31
-258	-154	404	19	31
-179	-313	365	148	31
-134	-422	-335	-4	31
-201	-152	-530	-202	31
295	309	-761	-11	31
15	557	-591	21	31
-190	1096	161	-205	31
-46	1632	940	-249	31
-277	1194	763	-99	31
-160	233	472	-271	31
-116	-578	789	-350	31
-9	-1253	680	226	31
122	-1241	194	475	31
-163	-406	-467	86	31
-240	86	-1273	-44	31
28	-64	-1556	-32	31
4	-199	-1100	16	31
-117	-460	-290	36	31
86	-630	272	330	31
105	-421	695	572	31
152	-113	851	289	31
57	131	801	101	31
-199	153	904	-133	31
-168	58	450	-432	31
-72	7	-220	-429	31
270	52	-1043	-192	31
138	207	-1007	59	31
-300	470	-465	320	31
37	551	-373	174	31
243	223	539	-6	31
-86	-406	914	31	31
-272	-912	505	-146	31
-225	-680	260	-32	31
-52	-276	212	-5	31
36	-212	244	-151	31
32	-63	253	-166	31
129	29	640	131	31
106	181	299	301	31
154	398	-224	299	31
332	359	276	464	31
315	305	152	67	31
38	150	-1186	-237	31
-137	4	-961	-229	31
-113	34	1380	-334	31
-197	250	2434	-92	31
-125	569	415	192	31
-182	610	-1203	337	31
-99	267	-2265	16	31
12	-370	-2584	-888	31
-59	-648	-1156	-1157	31
478	-580	-455	-471	31
611	-440	-62	-62	31
-57	-45	-915	123	31
-250	183	-502	419	31
374	430	522	85	31
280	475	62	-36	31
-135	145	363	151	31
94	39	555	442	31
-159	-19	803	369	31
-112	-97	658	254	31
59	-129	301	486	31
-292	-12	266	335	31
-502	328	284	525	31
-445	686	432	194	31
-562	605	962	-168	31
-674	81	1052	-60	31
-207	-128	12	12	31
-24	-194	-1020	45	31
387	-263	-1260	33	31
395	-250	-896	-214	31
-26	-367	-850	-546	31
202	-300	134	-83	31
13	-288	529	123	31
137	-493	10	46	31
261	-371	147	-211	31
368	189	597	-344	31
970	680	957	-97	31
980	777	486	277	31
421	550	-12	264	31
-15	255	-691	-57	31
-299	242	-502	121	31
-398	226	295	-96	31
-214	-22	260	-151	31
-155	-225	365	-232	31
-59	-335	436	-370	31
-84	-300	433	-34	31
-4	-46	637	50	31
252	-36	744	-129	31
189	-313	246	275	31
-91	-494	-934	875	31
-166	-629	-1781	298	31
99	-567	-916	-493	31
-41	-415	1070	-586	31
-314	-286	966	-132	31
-376	-49	-223	44	31
-397	222	-471	162	31
62	675	-517	454	31
220	1242	41	84	31
-44	1274	11	-47	31
-41	458	-404	-32	31
-237	-17	-327	-24	31
-99	-327	152	-293	31
32	-1001	815	-535	31
9	-561	418	239	31
57	167	155	457	31
-535	187	-209	112	31
-716	119	-444	-216	31
-284	102	50	-501	31
317	74	16	-96	31
676	-370	-577	65	31
310	-587	-908	-97	31
174	-582	435	-12	31
374	-781	1534	427	31
154	-499	1089	642	31
-66	-174	130	-280	31
-150	-66	-313	-635	31
-70	162	-210	-93	31
78	358	-538	374	31
-152	608	-243	440	31
102	614	124	-1	31
239	318	80	-67	31
-22	312	-2	-85	31
200	342	80	-50	31
77	143	-185	-52	31
-4	-140	-886	176	31
-22	-312	-808	645	31
-162	-265	-32	26	31
27	-284	1035	-483	31
-282	-302	866	-289	31
-593	-192	343	-262	31
-260	126	-52	224	31
151	413	-480	-6	31
449	491	655	-449	31
219	548	1451	201	31
-189	268	1264	352	31
34	-54	568	220	31
201	-121	-918	262	31
92	-194	-1646	106	31
-67	-111	-1844	-109	31
-200	44	-2273	272	31
-183	365	-1797	233	31
63	956	-182	-133	31
67	1101	651	1	31
-1	626	347	-442	31
101	-192	-297	-354	31
-320	-946	-1175	136	31
-364	-914	-1168	-126	31
-99	-509	-156	-407	31
92	-449	1362	-261	31
239	-669	2075	-111	31
151	-859	1541	61	31
144	-655	1019	67	31
185	-22	694	176	31
47	497	528	222	31
-360	512	152	7	31
-159	445	-140	116	31
47	444	-317	95	31
150	353	-168	110	31
194	166	775	-97	31
-336	-144	1418	-219	31
-127	-391	779	137	31
46	-362	148	425	31
-178	-217	-232	274	31
-145	-72	-939	-79	31
-46	270	-1083	-228	31
45	471	-578	-113	31
-26	410	566	214	31
67	166	277	185	31
34	-164	-450	-79	31
49	-204	-219	-254	31
327	-24	-186	-46	31
174	445	-805	463	31
219	699	-1928	832	31
85	326	-798	528	31
-361	-131	194	-445	31
28	-741	116	-759	31
304	-1134	346	-211	31
183	-594	166	-30	31
142	190	478	-105	31
51	248	405	-327	31
22	39	49	-374	31
71	-177	429	-231	31
91	-449	1071	-638	31
56	-413	686	-477	31
355	-250	96	-383	31
279	114	-94	453	31
-294	572	-193	1295	31
-275	777	-54	505	31
-147	603	-401	117	31
-139	344	-664	-76	31
69	215	-1134	48	31
-26	-21	-1522	-16	31
-157	-173	-425	-112	31
-46	-337	1155	197	31
-152	-571	1304	57	31
-261	-388	639	72	31
-187	460	452	-139	31
-156	1037	-170	-126	31
-74	884	-709	288	31
6	574	39	56	31
35	-61	363	-240	31
88	-694	423	-39	31
83	-710	480	-25	31
138	-303	370	115	31
46	-106	412	196	31
-82	-218	-106	109	31
57	-242	-257	282	31
46	-172	-158	284	31
-300	478	-68	19	31
-487	1485	-249	-578	31
36	1793	-352	-417	31
395	1152	-82	85	31
398	-234	116	-429	31
349	-1514	436	-479	31
36	-1770	416	16	31
-102	-1290	2	-162	31
-14	-700	-549	-16	31
7	-152	-582	103	31
-78	-18	7	171	31
62	80	131	365	31
99	285	-202	27	31
-181	288	-520	-116	31
-432	283	-872	-149	31
-232	70	-340	79	31
334	60	492	212	31
453	368	327	420	31
335	170	109	442	31
84	-433	4	-72	31
-86	-686	-147	-246	31
2	-723	-229	-116	31
-58	-483	-367	90	31
-124	133	-21	-132	31
-121	263	578	-74	31
136	317	741	-77	31
96	767	540	-167	31
-146	401	418	-69	31
-24	-213	124	5	31
26	-445	-322	440	31
87	-1027	-620	423	31
71	-875	179	267	31
-124	-89	1925	112	31
-518	671	1727	-51	31
-655	1748	-290	-77	31
-213	2149	-1635	-279	31
126	1196	-1291	-359	31
442	-80	-258	-235	31
428	-440	-60	-19	31
267	-759	-363	174	31
178	-1129	-523	337	31
-50	-920	-399	378	31
-29	-1025	-27	-59	31
-49	-878	162	-510	31
64	-129	111	-536	31
-144	672	142	-101	31
-307	1037	340	-32	31
109	604	825	-86	31
72	61	769	572	31
-14	-337	-191	506	31
53	-501	-1245	-408	31
87	-553	-1129	-573	31
-74	-617	947	-233	31
-248	-570	1866	-80	31
-153	-303	1922	353	31
-187	410	1232	630	31
-59	1340	-1915	540	31
101	1919	-2986	362	31
298	1284	-1150	-30	31
343	54	591	-291	31
328	-712	533	-347	31
400	-1367	-90	-324	31
-41	-1141	57	-163	31
-99	-194	287	-57	31
-77	-90	175	-208	31
-143	-289	-300	-37	31
80	94	-383	402	31
-167	430	101	199	31
-25	337	623	-96	31
-36	122	239	-93	31
-581	-20	-397	28	31
-264	-71	-741	417	31
204	76	-451	457	31
86	729	-349	-191	31
12	1168	-833	-401	31
-14	745	-259	52	31
121	45	654	314	31
260	-488	1155	141	31
20	-606	774	-556	31
82	-363	15	-898	31
242	-39	167	-102	31
101	66	217	375	31
-199	5	890	14	31
-294	-27	1472	558	31
-314	-65	74	659	31
-493	104	-1073	125	31
-71	184	-1273	80	31
444	-86	-698	129	31
219	-283	97	262	31
-200	-273	658	-90	31
-259	-14	1134	-338	31
-149	495	507	-778	31
16	566	-438	-788	31
334	131	-1566	306	31
473	-35	-1461	295	31
366	115	-130	-415	31
148	84	537	-145	31
147	-157	958	-101	31
219	-371	1059	-27	31
3	-511	601	202	31
-220	-312	94	119	31
-131	147	-235	258	31
122	217	-438	184	31
-65	24	-553	99	31
-291	110	-668	32	31
-276	343	-615	-39	31
-138	490	-270	-82	31
71	701	703	-142	31
51	621	1277	-115	31
-3	-322	746	119	31
-99	-1037	313	164	31
110	-912	-50	32	31
145	-729	-269	329	31
-205	-393	-250	270	31
-71	-70	-395	-260	31
124	122	-448	-378	31
129	363	-633	191	31
92	254	-571	535	31
112	-104	79	152	31
-53	-370	786	-134	31
-139	-563	1060	-199	31
-7	-349	560	-84	31
-225	138	-338	82	31
-156	438	-679	260	31
27	457	-761	237	31
-206	19	-1004	-192	31
-122	-212	-619	-204	31
178	-245	219	-328	31
177	-87	829	-617	31
154	441	1173	-316	31
227	193	1122	253	31
54	-283	375	249	31
-101	-302	-275	-48	31
113	-225	-685	64	31
15	-12	-967	-3	31
-232	142	-474	9	31
-159	375	141	66	31
-134	548	357	6	31
82	461	286	-402	31
284	312	415	-688	31
-20	289	382	-187	31
-174	305	-492	637	31
-249	4	-756	1234	31
-292	-457	-143	787	31
51	-639	-335	394	31
325	-144	-1089	126	31
342	651	-989	-258	31
268	995	-50	-114	31
340	914	584	-286	31
243	292	979	-594	31
-1	-589	768	-314	31
8	-462	714	77	31
141	486	1158	-309	31
77	326	809	-307	31
-204	-594	331	472	31
-253	-798	-355	603	31
-201	-955	-358	116	31
-134	-747	219	-276	31
-79	59	191	-349	31
72	463	63	-80	31
180	365	-1108	500	31
-133	-10	-1742	647	31
-64	-405	-703	584	31
137	-501	-688	131	31
-13	-232	-316	-553	31
-104	-5	74	-434	31
-175	141	-151	-454	31
-150	290	230	-314	31
27	295	215	-159	31
103	61	741	-500	31
21	-214	716	-488	31
30	-468	783	-202	31
-155	-704	1235	-27	31
-270	-476	347	84	31
2	-122	-464	271	31
77	112	-295	318	31
80	361	-111	203	31
7	590	-322	221	31
-158	757	-417	335	31
48	551	-291	106	31
133	145	154	169	31
-14	-59	418	483	31
69	8	804	129	31
31	111	500	-295	31
94	99	-334	80	31
116	-16	-602	488	31
-160	-60	-819	-154	31
-78	9	-521	-825	31
-35	-163	-299	-803	31
-44	-325	-239	-460	31
48	-204	32	-74	31
133	-16	253	361	31
228	97	565	574	31
35	284	721	273	31
-68	478	560	317	31
50	348	276	197	31
-46	361	7	140	31
-118	442	-482	95	31
77	331	-696	-130	31
54	173	-338	121	31
72	-305	-290	86	31
37	-682	-54	-110	31
-224	-769	273	-346	31
-95	-470	-66	-204	31
74	109	-98	-34	31
71	141	18	-136	31
76	-90	-14	-76	31
7	-238	291	-125	31
-69	-342	844	-76	31
37	-152	849	-245	31
5	159	248	-277	31
-306	451	-521	-99	31
-149	724	-1237	17	31
267	865	-654	301	31
162	553	212	227	31
-75	-327	728	269	31
-22	-990	942	349	31
-50	-653	155	-5	31
-122	262	-419	91	31
-94	167	-591	307	31
-43	-356	-181	357	31
2	-318	-64	200	31
-39	-584	-315	81	31
1	-305	-174	201	31
-42	240	-411	-308	31
-37	-69	-59	-475	31
94	-568	659	-212	31
142	-883	929	-231	31
75	-836	294	-287	31
-134	-450	-598	-507	31
-64	-51	-724	-79	31
107	366	147	330	31
161	835	862	-19	31
-4	1048	243	-229	31
-273	1106	-7	-160	31
-176	885	-235	303	31
71	513	-446	613	31
127	408	-397	498	31
-127	255	-81	535	31
-33	191	583	102	31
197	59	403	-252	31
101	-114	144	-187	31
9	-240	-11	-147	31
-11	-380	-302	-189	31
94	-49	-438	-376	31
14	253	-203	95	31
172	2	114	305	31
360	-249	340	-48	31
112	-331	472	-296	31
-99	-423	-193	-336	31
-115	-21	-669	-55	31
-81	533	-382	-75	31
-181	425	41	53	31
-39	189	273	151	31
18	3	308	24	31
-197	-336	555	134	31
-156	-492	433	11	31
-67	-471	-19	-310	31
48	-295	-341	-16	31
279	-124	-526	661	31
266	-6	-759	309	31
74	157	-1421	-297	31
166	-4	-1205	-288	31
103	-209	941	-288	31
-66	-235	2468	-124	31
91	-363	1804	35	31
110	3	-52	114	31
98	654	-1405	404	31
-55	583	-649	394	31
-279	201	-114	173	31
-257	-254	-241	193	31
-225	-571	-129	130	31
-17	-277	-109	59	31
-2	12	669	-25	31
-181	6	1413	-333	31
-44	-107	938	-335	31
87	61	-302	-20	31
124	247	-738	-215	31
148	37	-290	-572	31
92	7	105	-587	31
13	-39	6	-561	31
-57	-229	86	232	31
-138	-34	-126	697	31
-115	472	-718	340	31
-10	719	-941	431	31
-40	483	-834	56	31
-110	141	-74	22	31
-102	-277	529	376	31
-63	-527	485	176	31
-30	-186	308	199	31
32	179	253	90	31
29	127	199	-4	31
-15	84	384	-156	31
-22	397	445	-287	31
78	845	260	-41	31
178	732	-6	-121	31
4	-149	-292	-255	31
-49	-873	36	-264	31
-29	-985	-35	6	31
46	-435	-585	494	31
119	107	-590	395	31
-92	-220	-134	258	31
-170	-679	283	84	31
-209	-913	173	-162	31
-209	-898	-289	-90	31
-259	-334	-168	-335	31
-211	232	919	-592	31
23	549	759	-327	31
157	1173	-645	-57	31
286	2040	-714	-247	31
254	2547	-6	-179	31
222	1899	-150	365	31
205	-175	-709	740	31
186	-1835	-270	448	31
147	-2398	641	-19	31
36	-2318	401	11	31
-1	-1239	335	-104	31
-74	-88	649	-232	31
-146	121	126	-60	31
-198	34	-138	242	31
-253	220	-362	-322	31
-83	-146	224	-1059	31
121	-865	1515	-262	31
92	-437	1521	857	31
111	606	483	677	31
36	894	-1514	79	31
-134	959	-2767	25	31
-96	1362	-2812	478	31
5	1440	-2601	890	31
62	820	259	-367	31
7	-209	2382	-578	31
2	-1104	1471	148	31
37	-992	763	-112	31
95	-287	932	217	31
230	282	604	136	31
122	298	-169	38	31
-134	-27	412	-301	31
-177	-16	803	-888	31
-154	-84	632	-353	31
-103	142	403	-81	31
-14	155	172	-523	31
-81	-231	-187	-265	31
43	-316	-1414	-172	31
234	-262	-2267	-111	31
149	81	-1230	521	31
92	81	65	717	31
244	37	346	519	31
295	133	630	560	31
102	67	486	307	31
-44	169	326	-695	31
-65	262	412	-813	31
-99	654	1333	-189	31
-107	649	1441	-145	31
-86	-237	174	-808	31
-57	-761	-1231	-687	31
19	-776	-892	-448	31
41	-693	803	-716	31
61	-313	1263	363	31
38	146	2200	1825	31
-27	307	1158	2258	31
29	186	-1743	547	31
46	185	-3171	-468	31
-62	451	-3449	1382	31
-97	604	-2724	1331	31
39	388	-993	-157	31
49	98	243	-377	31
64	-161	191	-72	31
62	-482	299	-455	31
-76	-358	194	-1128	31
-142	-16	892	-1027	31
-237	129	1857	-1023	31
-182	96	2101	-809	31
-126	-198	1900	-563	31
-21	-293	1198	538	31
75	-114	1195	610	31
-19	42	-67	-1020	31
4	59	-1203	480	31
105	-37	-896	2529	31
232	-40	-583	595	31
262	24	54	-590	31
209	55	-445	1036	31
104	63	-1548	206	31
51	131	-1561	-1492	31
-9	232	-407	-2584	31
-54	88	713	-3247	31
-64	-358	1238	-2375	31
-187	-326	2345	142	31
-111	87	2746	4000	31
-17	149	464	4000	31
-79	378	-2603	1290	31
-142	644	-3628	-1941	31
-108	386	-2163	-2063	31
-7	36	18	-476	31
-104	-64	499	875	31
-71	-66	159	1146	31
38	129	477	590	31
204	242	1141	-204	31
418	-258	1135	818	31
225	-566	110	330	31
54	-600	-560	-428	31
-22	-616	-828	208	31
-127	-370	-1034	-597	31
-99	-232	1050	-786	31
-56	-38	2882	-554	31
-143	92	1600	-28	31
-309	107	-190	-357	31
-124	64	-986	-629	31
204	-170	-518	-277	31
294	-181	-538	-435	31
350	307	47	-492	31
181	547	466	-968	31
95	101	-983	-605	31
275	-66	-1822	995	31
151	62	-554	1695	31
31	144	684	134	31
-67	231	-645	-845	31
-154	168	-394	87	31
-116	213	1668	244	31
-175	240	739	363	31
-84	112	-291	361	31
40	-12	-152	-492	31
123	-111	-116	-430	31
182	-41	506	-520	31
140	-9	1063	-535	31
86	-24	1406	3	31
55	-20	-681	244	31
41	-94	-2379	710	31
7	-100	-1057	860	31
-81	-56	-290	490	31
-180	-24	24	816	31
20	-73	-480	928	31
140	-122	-343	-565	31
39	-167	1816	-397	31
97	-263	2576	106	31
-33	-242	2185	-761	31
-134	-101	1746	-1230	31
-179	46	959	-866	31
-326	149	-970	523	31
-215	182	-3021	514	31
-4	122	-2320	-546	31
122	46	-898	-361	31
21	57	214	697	31
30	102	51	199	31
238	114	-642	-631	31
284	126	80	54	31
257	86	956	137	31
136	14	1396	65	31
1	16	-600	214	31
-172	6	-1696	705	31
-242	12	-1007	1471	31
-247	24	-113	608	31
-339	5	1718	212	31
-235	45	2660	-638	31
-284	-115	806	-2745	31
-410	-326	-2471	-2340	31
-384	-204	-1509	-585	31
-198	-29	1019	59	31
50	12	904	789	31
129	-26	-381	2039	31
333	-7	-1587	2370	31
443	16	-990	1620	31
413	54	-245	-195	31
340	-9	152	-305	31
180	-71	795	-354	31
88	190	1058	-1163	31
-114	204	661	-659	31
-250	72	-417	-658	31
-355	97	-588	-1071	31
-440	104	25	-552	31
-305	20	678	426	31
-101	-154	445	1649	31
-6	-144	167	2079	31
31	-165	322	156	31
181	-203	-476	-1053	31
277	-57	-759	-575	31
187	146	-727	-196	31
71	337	169	-41	31
37	270	660	702	31
-174	52	331	427	31
-221	-87	97	-600	31
-77	-47	-778	-550	31
-129	61	-521	-430	31
-58	29	264	-374	31
167	-21	1604	-674	31
148	-122	2126	-293	31
-86	-185	1307	-147	31
-26	-123	-172	169	31
104	-92	-2234	1690	31
111	-52	-2324	1624	31
309	24	-1156	-99	31
134	141	-1237	-881	31
-132	159	-1704	-778	31
117	40	591	-790	31
112	127	2384	-46	31
24	143	1407	-309	31
-41	-76	978	264	31
-166	-134	968	859	31
-69	-165	1603	-228	31
24	-148	1674	-109	31
112	-74	609	402	31
59	-59	-1105	349	31
10	82	-3221	309	31
-59	136	-2845	498	31
-60	60	-1115	-1326	31
-84	41	-117	-1623	31
-180	52	650	194	31
-81	141	445	592	31
19	181	29	617	31
112	70	149	-247	31
-175	-13	433	-398	31
-477	-53	959	-928	31
-146	-149	1207	-816	31
183	-167	634	243	31
210	-82	-969	800	31
197	-42	-2147	560	31
59	-40	-915	-11	31
175	49	994	1930	31
343	90	696	2399	31
112	-33	1122	1196	31
-118	4	1811	-369	31
-246	157	410	-1087	31
-300	147	-1277	-309	31
-300	37	-1735	-876	31
-137	32	-146	-756	31
70	39	-296	-497	31
200	-42	-309	-605	31
310	-29	285	-207	31
455	-69	299	-19	31
485	-119	830	179	31
255	-97	578	238	31
71	-36	816	-151	31
-34	22	265	-144	31
-132	-26	-36	606	31
-207	-1	-482	91	31
-239	63	-1254	-748	31
-221	101	-907	-3	31
-265	96	30	522	31
-287	-5	1143	-359	31
-218	-72	1145	-665	31
-194	-63	587	-288	31
-108	-66	185	-634	31
19	-87	225	-786	31
78	-44	-1417	495	31
168	39	-2312	1828	31
176	117	24	910	31
147	96	763	147	31
129	44	-378	146	31
82	79	-698	-244	31
59	73	-219	-405	31
-42	33	-96	-233	31
-186	29	62	235	31
-254	6	372	255	31
-339	-29	328	-142	31
-389	-47	272	-485	31
-243	-62	278	-203	31
-132	-87	678	69	31
-83	-144	903	384	31
191	-179	791	-98	31
386	-149	428	376	31
315	-49	-430	1039	31
195	153	-842	-425	31
30	285	-320	-720	31
36	276	-314	-692	31
148	62	-581	-251	31
98	-91	-247	1078	31
155	9	425	441	31
200	-24	1113	-1442	31
80	-18	124	-1379	31
-13	6	-1524	-530	31
-86	-29	-445	367	31
41	-26	1097	1358	31
144	-56	362	1050	31
2	33	432	934	31
-71	42	357	1091	31
26	-74	-832	74	31
96	-84	-1258	-1867	31
-110	-15	-865	-1386	31
-161	73	471	232	31
-70	57	407	924	31
-50	49	114	737	31
76	147	114	-54	31
56	73	411	-53	31
104	-22	208	-134	31
84	-29	-561	29	31
-71	-60	467	-149	31
-101	6	570	64	31
-131	169	100	261	31
-114	295	-304	-10	31
-154	113	-646	-19	31
-109	-73	-227	-157	31
46	-21	30	-337	31
61	77	125	-497	31
-69	262	260	-386	31
-136	212	925	-330	31
-86	-107	1612	345	31
-22	-526	735	736	31
90	-729	-945	-114	31
214	-225	-590	-211	31
392	209	199	534	31
459	119	-740	158	31
242	49	-1327	-132	31
-11	-195	-909	846	31
-56	-348	-511	535	31
-62	-185	-1119	133	31
-57	-9	-926	-388	31
-27	142	583	-1514	31
31	57	1041	-353	31
72	-67	931	-356	31
-14	-139	1535	-921	31
30	-92	1734	-717	31
3	72	960	-174	31
14	196	-309	978	31
65	222	-1583	779	31
-3	163	-1137	596	31
60	155	-282	455	31
38	94	-61	-12	31
-19	83	251	99	31
-57	144	116	463	31
-78	346	-264	181	31
-58	376	-599	-134	31
-87	8	-498	-482	31
-99	-192	380	-319	31
-228	-345	837	-11	31
-206	-362	325	-149	31
-52	-99	-225	-34	31
-114	-39	-223	98	31
23	-12	464	302	31
194	54	852	310	31
184	24	307	310	31
164	47	-468	-249	31
56	40	-536	-419	31
19	13	-27	-259	31
7	38	109	-540	31
-89	37	-370	-158	31
-205	-28	-826	237	31
-177	-39	87	287	31
-104	24	1589	268	31
-97	-14	1531	447	31
-28	2	854	409	31
13	71	-226	370	31
56	55	-1420	-454	31
51	64	-953	-735	31
12	35	-442	295	31
97	37	-610	-274	31
232	52	-452	-202	31
276	11	-48	164	31
146	5	30	-101	31
-14	-25	-13	-192	31
-136	-36	130	-250	31
-166	-2	180	433	31
-122	18	157	227	31
-85	27	38	-224	31
12	17	-11	-370	31
-92	12	109	-437	31
-188	21	640	-80	31
-93	-7	1162	384	31
-50	-77	315	949	31
40	-80	-1467	975	31
51	-25	-1338	117	31
58	-7	388	-409	31
121	-12	973	-192	31
120	-53	586	-37	31
137	-34	407	223	31
126	59	170	335	31
51	69	-98	117	31
-31	-3	-37	-265	31
-164	-26	-174	-245	31
-221	0	-201	-337	31
-154	8	-357	-587	31
-149	31	-763	-630	31
36	55	-586	-321	31
252	53	-363	932	31
225	33	-370	491	31
187	19	-198	-472	31
187	-11	109	-216	31
161	-34	1052	-477	31
58	-1	2013	-72	31
-12	10	1575	26	31
111	-27	-307	136	31
176	-41	-1834	931	31
-16	-10	-1571	795	31
-49	36	-300	22	31
-118	175	56	-725	31
-190	247	-325	-984	31
-76	31	-225	-260	31
-181	-119	-50	738	31
-176	9	852	555	31
-117	-19	1073	395	31
-30	-229	467	124	31
65	-168	-333	-71	31
19	12	-1044	249	31
36	37	-222	-177	31
33	29	393	41	31
119	27	445	112	31
144	140	386	-152	31
29	322	21	107	31
74	244	-209	-393	31
39	37	-171	-750	31
-110	-45	313	-719	31
-56	-207	615	-416	31
-121	-310	558	230	31
-120	-166	156	1287	31
21	-169	-581	1316	31
-114	-262	-930	-394	31
-292	-144	-530	-571	31
-274	-12	-107	68	31
-66	62	112	-121	31
54	116	214	136	31
108	137	207	450	31
200	70	316	-7	31
249	-19	-51	-138	31
247	-2	-596	148	31
157	-61	-723	26	31
142	-77	182	-113	31
111	4	1517	-245	31
-51	66	153	-146	31
-74	93	-1464	-64	31
-5	94	-173	-37	31
-59	142	849	-34	31
-166	109	412	-179	31
-231	80	51	-216	31
-127	46	254	-152	31
-49	-84	630	-13	31
2	-126	177	-12	31
80	-79	-546	32	31
27	-20	-365	17	31
50	4	84	-30	31
49	4	199	-35	31
8	16	49	-33	31
0	3	-152	23	31
-7	6	-380	50	31
-19	17	-303	146	31
-58	6	-92	202	31
-59	224	1	169	31
-77	710	116	67	31
-14	780	99	4	31
27	202	47	-33	31
-35	-453	31	-96	31
-79	-673	94	-52	31
-109	-537	162	11	31
-2	-509	353	-118	31
54	-292	374	-191	31
100	3	9	-7	31
237	15	-400	55	31
121	47	-533	115	31
29	22	-380	250	31
89	61	-717	116	31
126	74	-706	78	31
86	19	179	170	31
-21	59	443	152	31
-58	51	312	141	31
-126	67	58	56	31
-134	46	-115	-199	31
-126	46	616	-5	31
-138	46	646	411	31
-60	17	-473	-206	31
-2	58	-1165	-180	31
95	49	-3	299	31
192	37	1667	-367	31
167	14	1780	-863	31
163	-3	751	-604	31
167	31	-872	352	31
117	48	-1159	467	31
35	22	-598	134	31
-17	-21	-302	219	31
-66	11	-91	-118	31
-117	74	-161	-324	31
-136	116	-156	-219	31
-112	91	-187	-26	31
-66	24	-102	-169	31
-145	-39	233	64	31
-113	-99	488	322	31
-29	-89	412	370	31
31	-57	161	475	31
109	-6	-506	64	31
16	34	-633	-245	31
27	13	-68	-350	31
82	-12	-104	-156	31
91	-10	-562	-262	31
44	4	-751	-336	31
-37	4	-139	100	31
11	2	770	315	31
-47	-1	1370	244	31
-87	-11	1247	129	31
-99	-1	598	222	31
-86	-14	-124	242	31
11	-34	-297	217	31
-62	-21	584	-136	31
-78	-9	924	-193	31
33	4	-501	-163	31
141	36	-1398	-372	31
29	51	-1476	26	31
-59	12	-837	481	31
150	16	342	381	31
152	57	329	40	31
29	90	445	30	31
-49	198	-212	-142	31
-31	182	-386	-307	31
-26	-6	78	-336	31
-91	-117	275	-345	31
-83	-194	918	-62	31
-79	-255	688	62	31
-89	-179	13	262	31
-159	-21	-589	172	31
-6	-11	-656	-146	31
82	-34	-203	-66	31
-44	118	119	63	31
-14	278	163	204	31
51	241	185	490	31
64	-6	-82	784	31
38	-263	-417	237	31
126	-370	-269	-556	31
158	-1	-21	-563	31
84	385	174	-250	31
66	205	195	-59	31
-37	-124	182	-26	31
-9	-268	144	14	31
-7	-180	81	10	31
-121	-46	-34	36	31
-84	-5	-152	2	31
-190	-57	21	-61	31
-240	-29	151	-77	31
-19	24	-159	-34	31
109	17	-726	54	31
89	26	-287	88	31
96	20	973	132	31
181	57	1158	126	31
236	76	440	98	31
158	69	-40	46	31
93	-3	-35	-21	31
129	120	-113	-18	31
77	360	-151	8	31
-35	69	-210	-216	31
-102	-334	-370	-298	31
-127	-237	3	101	31
-19	-11	212	155	31
74	52	-138	-18	31
-37	153	-816	-17	31
-141	270	-653	52	31
-99	411	538	248	31
-15	310	1042	255	31
62	-116	440	64	31
96	-362	-400	-217	31
84	-491	104	-265	31
89	-368	565	-152	31
99	-55	110	64	31
-8	-31	109	627	31
-81	-26	122	811	31
-62	-2	-579	330	31
-137	-17	-1232	-279	31
-181	74	-260	-573	31
-151	134	136	-621	31
-100	129	-137	-741	31
-94	89	343	-383	31
-70	72	242	154	31
-5	67	-179	124	31
36	36	-197	232	31
111	4	192	269	31
127	-19	26	243	31
108	-43	-439	279	31
90	-45	-500	274	31
71	-2	-489	136	31
47	42	-137	-605	31
36	49	194	-497	31
45	62	372	-207	31
-21	94	588	-574	31
-83	51	765	-407	31
-120	20	778	-169	31
-159	24	495	252	31
-61	-16	-569	576	31
22	-18	-1626	762	31
-37	1	-616	377	31
-1	34	365	-343	31
27	34	539	-124	31
39	16	462	31	31
110	21	-15	6	31
87	4	153	-6	31
91	-1	21	-12	31
60	-19	-265	118	31
30	-32	-195	419	31
-21	-24	944	587	31
-77	-26	1526	287	31
0	-40	885	-211	31
-29	-43	439	-603	31
-39	-31	-617	-523	31
-17	-21	-1069	-354	31
-77	11	-1261	313	31
-80	36	-1727	1001	31
-37	62	-1288	4	31
0	77	-357	-936	31
52	46	291	-332	31
121	33	478	-16	31
153	2	490	-67	31
164	-69	475	102	31
53	-116	625	22	31
-42	-100	587	85	31
69	-51	237	93	31
19	-1	-308	124	31
-123	22	-546	152	31
-12	-1	-96	81	31
22	12	244	99	31
29	16	310	12	31
26	-22	352	-20	31
-134	-17	443	-143	31
-124	-16	716	-209	31
64	-6	520	14	31
67	27	187	236	31
-4	27	-398	235	31
103	11	-1180	98	31
71	-26	-1592	-72	31
27	-50	-1664	-60	31
57	-26	294	329	31
67	23	1984	555	31
96	45	1390	300	31
-26	69	627	34	31
-214	99	9	-135	31
-105	37	-604	-173	31
-26	-6	-814	-202	31
-176	-26	-435	-310	31
-167	-47	-146	-112	31
-171	-1	-34	-97	31
-81	9	50	-147	31
-21	14	165	-152	31
44	14	335	-208	31
227	-12	234	-81	31
244	-7	94	-34	31
221	1	22	19	31
187	-6	6	31	31
179	-18	-66	19	31
96	-9	-191	16	31
26	2	-227	37	31
7	12	-58	58	31
-86	-6	267	-17	31
-110	-61	505	-120	31
-162	-91	474	-102	31
-132	-59	246	168	31
-69	16	-12	489	31
-116	47	-94	519	31
-72	89	-5	245	31
-10	108	-223	116	31
2	58	-264	-146	31
48	98	-669	-369	31
77	79	-939	-429	31
96	12	-300	-298	31
94	3	99	306	31
19	-20	571	262	31
-32	-17	728	311	31
-99	1	688	462	31
-100	45	165	-134	31
-79	21	-247	-240	31
-132	-18	-541	-44	31
-52	-7	-545	-247	31
-62	-27	614	-732	31
-135	17	384	-769	31
-74	41	-8	-56	31
9	52	128	148	31
33	71	-287	216	31
26	16	-603	452	31
36	-11	-863	-289	31
127	-28	-381	-372	31
206	-29	123	2	31
49	22	278	-186	31
97	9	302	32	31
-5	-47	436	290	31
-47	-62	551	459	31
140	-182	58	280	31
-99	-239	-175	270	31
-136	254	141	218	31
-237	576	-150	-49	31
-221	48	-378	72	31
21	-501	788	94	31
86	-293	1152	-93	31
126	106	-275	-154	31
54	45	-1870	-4	31
112	4	-1563	127	31
81	100	256	469	31
73	262	593	372	31
102	258	157	-262	31
47	90	-277	-796	31
121	44	382	-745	31
-14	-212	700	-44	31
-98	-419	-240	44	31
44	-235	59	125	31
79	111	215	316	31
-34	114	272	171	31
-216	-5	245	82	31
-136	-11	11	16	31
-76	-221	-117	-7	31
-70	-210	-348	-30	31
89	-6	-39	93	31
67	22	313	92	31
-50	21	513	20	31
-17	34	339	-19	31
142	6	293	-2	31
87	23	378	51	31
81	59	142	77	31
79	54	-20	66	31
-110	46	-370	-2	31
-147	47	-362	64	31
-198	49	177	-19	31
-77	40	498	-61	31
72	39	157	-9	31
7	14	-531	-132	31
-40	16	-861	-62	31
-74	8	-563	27	31
40	-4	-395	13	31
46	30	-1040	-35	31
19	17	-1160	-84	31
160	11	244	-54	31
-26	23	1451	4	31
-1	1	1422	89	31
222	-4	841	80	31
-24	160	214	54	31
8	433	87	45	31
35	374	-337	99	31
-61	-29	-633	42	31
11	-178	-164	-14	31
-49	-199	391	36	31
-73	-358	748	-323	31
-130	-278	327	-455	31
-26	-161	-805	266	31
-6	-73	-1325	683	31
-47	66	-819	345	31
137	66	-112	80	31
92	219	6	-209	31
-49	439	-42	-509	31
41	377	14	-201	31
185	113	214	151	31
157	-155	343	17	31
69	-465	154	-137	31
-20	-711	200	-91	31
-128	-420	253	-37	31
-60	114	204	-20	31
-124	147	-144	-49	31
-204	-148	-209	-69	31
124	-135	433	7	31
198	147	642	102	31
134	167	489	130	31
21	124	73	82	31
-340	149	-177	154	31
-91	110	624	383	31
113	89	280	425	31
54	31	-869	-216	31
201	50	-763	-708	31
-72	59	112	-278	31
-17	51	1317	291	31
287	76	1736	397	31
54	8	669	318	31
58	12	-1343	527	31
191	72	-2646	267	31
-129	57	-1920	-500	31
-280	55	-611	-682	31
-140	106	-82	-307	31
-95	199	81	-235	31
-47	169	182	-184	31
57	-82	210	-67	31
-25	-280	279	-84	31
-96	-433	261	-26	31
46	-504	368	-147	31
-62	-312	336	-127	31
-152	-72	-136	-107	31
299	-56	-315	22	31
259	-165	44	343	31
66	-257	527	352	31
-26	-275	506	129	31
-440	-133	485	54	31
-96	-116	772	71	31
-64	-89	1040	-111	31
-226	174	591	-194	31
-12	448	-849	-268	31
64	551	-1770	87	31
281	416	-1196	702	31
92	526	187	561	31
-237	746	841	192	31
-122	674	1124	-307	31
0	460	1975	-388	31
9	299	1689	108	31
339	151	-946	-86	31
350	146	-2653	-23	31
142	489	-1887	145	31
-6	511	54	157	31
