File Name: not saved
Channel 1: 'EMG 1', 16930 values, raw ADC, no filters.
Channel 2: 'EMG 2', 16930 values, raw ADC, no filters.
Channel 3: 'EMG 3', 16930 values, raw ADC, no filters.
Channel 4: 'EMG 4', 16930 values, raw ADC, no filters.
Digitals combined (event=16, d=8, c=4, b=2, a=1): 16930 values, .

1	-58	54	-37	31
121	41	353	-74	31
117	31	354	136	31
142	22	6	4	31
39	55	-126	-91	31
29	36	-168	-147	31
98	60	-135	-255	31
24	48	-160	-290	31
-82	56	-385	-150	31
-73	43	-561	98	31
-74	22	-398	-206	31
-97	68	26	147	31
-102	246	480	69	31
22	392	769	-94	31
51	129	352	517	31
-24	-99	305	-14	31
69	-165	680	-147	31
87	-316	394	59	31
74	-220	99	-66	31
58	-12	-253	166	31
56	18	-327	-240	31
60	-7	-241	-266	31
38	9	-278	209	31
32	-11	-382	420	31
-45	-21	-760	919	31
-54	15	-350	340	31
-42	19	382	270	31
-121	26	322	482	31
-119	23	56	-247	31
-37	18	-217	132	31
-16	19	-353	-585	31
22	12	124	-991	31
42	5	533	-1295	31
46	3	370	-2065	31
29	-7	31	-844	31
10	-9	-294	1500	31
85	22	-488	3082	31
101	17	-285	1268	31
166	8	-150	184	31
139	26	-354	83	31
-43	35	-236	-570	31
-203	40	159	-368	31
-418	16	194	-815	31
-408	-6	264	-417	31
-537	0	422	227	31
-731	-4	174	483	31
-251	-11	189	79	31
-108	-6	404	-67	31
-390	-7	288	422	31
82	9	54	604	31
676	46	-166	439	31
383	42	-239	-692	31
195	34	-213	-932	31
482	56	-219	-542	31
296	50	-159	-290	31
252	7	-104	-622	31
598	-38	-92	-961	31
694	-15	117	-867	31
314	-9	302	-630	31
-56	-42	249	695	31
-113	-22	194	1483	31
-262	2	119	1687	31
-131	13	-128	993	31
41	6	-222	-19	31
-45	-11	64	-56	31
-96	-20	98	-422	31
-158	-16	-66	-630	31
-40	-1	23	-435	31
116	1	-100	-187	31
195	36	-281	-111	31
237	77	9	12	31
176	63	237	174	31
112	55	26	400	31
-116	28	40	336	31
-315	-57	39	-277	31
-137	-135	-40	-555	31
-78	-122	252	-984	31
-145	-50	389	-640	31
-141	-18	368	1026	31
-137	-17	122	1926	31
-39	-10	-294	1178	31
-47	7	-379	387	31
-37	11	-453	-72	31
-32	27	-391	-79	31
-44	52	-134	2	31
54	39	2	-547	31
37	20	227	-937	31
1	-21	293	-1232	31
-17	-47	184	-300	31
-66	-19	38	1286	31
-81	2	-275	905	31
-74	7	-378	-622	31
-84	17	119	-464	31
-69	31	347	131	31
-9	42	-99	493	31
7	53	-182	150	31
-3	54	-106	-581	31
17	22	86	72	31
82	-12	406	183	31
51	-37	263	197	31
-61	-42	-67	-47	31
24	-16	-362	-856	31
87	-8	-351	-1082	31
-17	-7	-358	-644	31
64	6	-514	119	31
106	11	-247	530	31
-72	4	291	816	31
-121	-4	553	454	31
5	-10	341	216	31
-15	-13	136	21	31
-134	4	29	-30	31
-164	25	-90	-19	31
-114	40	-33	-342	31
-63	52	93	81	31
-212	50	484	-459	31
-207	48	803	-844	31
188	34	269	-541	31
450	-19	-368	-410	31
255	-76	-814	720	31
117	-56	-1012	805	31
220	-19	-384	-519	31
59	-25	325	141	31
-26	-8	379	1106	31
86	20	215	508	31
71	38	58	320	31
-124	41	-50	322	31
-224	41	-38	-36	31
-96	12	-9	44	31
-117	-24	262	190	31
-120	-1	429	-831	31
-94	11	528	-666	31
-27	14	464	101	31
79	21	36	303	31
94	23	-187	1027	31
136	16	-289	301	31
77	-26	-182	-314	31
-129	-61	67	0	31
-224	-74	101	-541	31
-222	-37	-67	-394	31
-288	21	-249	41	31
24	44	-266	17	31
269	31	-109	136	31
3	-19	59	245	31
190	-2	-126	72	31
267	34	-220	-485	31
-67	17	-164	-360	31
72	13	-64	-787	31
-2	11	159	-918	31
-30	14	147	-16	31
86	10	92	595	31
0	-16	135	1325	31
199	-6	63	525	31
199	22	55	-49	31
177	50	234	178	31
124	59	178	-285	31
27	36	163	3	31
50	-8	26	44	31
-58	-96	-225	-50	31
-67	-154	-257	166	31
-66	-106	-468	340	31
-15	-30	-360	640	31
-27	36	-205	464	31
-189	95	-41	-161	31
-274	105	250	-761	31
-132	51	164	-685	31
40	15	79	-203	31
-14	23	-30	-354	31
-52	30	20	-629	31
54	52	180	-314	31
167	204	304	-392	31
57	314	480	-587	31
51	58	367	41	31
62	-164	-6	996	31
-46	-222	-407	1347	31
27	-347	-405	332	31
-138	-245	-112	-470	31
-112	-32	79	-429	31
-17	15	57	-559	31
-204	4	-143	-781	31
-100	17	-277	-650	31
11	22	0	571	31
35	42	545	1381	31
13	50	508	998	31
32	48	-137	549	31
63	84	-666	172	31
50	58	-873	-4	31
122	10	-683	-110	31
105	-11	-267	-100	31
127	-8	31	-209	31
56	-7	214	-138	31
-39	-5	233	507	31
11	12	413	325	31
-27	14	591	-425	31
-42	34	583	-607	31
-37	24	620	-149	31
-49	4	506	-85	31
-22	-8	310	-243	31
-10	-31	-287	-141	31
69	-39	-498	-517	31
99	-38	-265	-342	31
8	0	-359	252	31
-29	19	-37	299	31
38	32	47	34	31
129	56	-212	-10	31
92	45	-85	132	31
29	31	108	-38	31
1	7	322	-46	31
-11	-14	250	211	31
-64	-16	74	208	31
-101	11	-65	291	31
-78	32	-305	635	31
-121	4	-247	275	31
-81	-1	-7	-268	31
-57	21	-1	389	31
-44	25	-213	-290	31
-3	11	-202	-837	31
9	-15	-26	319	31
63	-15	360	653	31
86	1	447	686	31
54	41	170	-242	31
29	62	96	-885	31
51	14	-147	-630	31
26	0	-185	-745	31
9	-2	-136	-636	31
-7	-26	-284	-77	31
-86	-24	-260	465	31
-88	-23	-154	702	31
-41	0	-56	479	31
-30	11	205	-303	31
-76	-6	460	-362	31
-96	-7	408	30	31
-61	-16	501	325	31
39	-27	485	548	31
97	-25	80	-34	31
54	-15	-170	-453	31
59	-1	-12	-507	31
49	7	418	-23	31
73	30	165	1186	31
62	74	-352	1460	31
-25	100	-922	-245	31
-32	106	-1350	-1341	31
16	49	-804	-741	31
-22	-100	-239	-786	31
-86	-114	204	-589	31
-69	-19	319	-41	31
-151	-21	270	668	31
-177	-9	324	634	31
-16	-12	358	81	31
-21	-34	553	567	31
-16	-14	375	656	31
190	-24	92	1027	31
204	-2	-172	443	31
210	14	-556	-848	31
157	17	-438	-642	31
12	37	140	-496	31
127	17	254	-204	31
99	17	154	72	31
-85	0	58	328	31
-137	-27	-162	478	31
-50	3	6	113	31
49	25	112	-103	31
-91	26	41	-198	31
-113	7	48	-207	31
-57	-13	6	-136	31
-86	7	-31	-84	31
51	17	-121	-174	31
59	15	-35	-193	31
-57	14	118	-527	31
-122	-8	170	-799	31
-138	6	220	-613	31
47	36	276	174	31
166	42	348	895	31
31	38	106	1008	31
32	-1	-377	597	31
174	-7	-618	-284	31
-144	9	-317	-447	31
-671	-21	85	-231	31
-709	-14	87	-557	31
-626	2	51	-876	31
-478	-52	31	181	31
245	-82	-66	1249	31
738	-40	-91	1514	31
771	-1	-207	1306	31
687	34	-170	-126	31
414	49	85	-655	31
222	3	330	-721	31
186	-26	408	-397	31
127	-9	211	364	31
32	-11	-85	-312	31
83	-1	-392	-823	31
9	28	-1	-873	31
-21	22	364	-509	31
-58	12	242	395	31
-68	32	219	1024	31
-24	37	-4	563	31
-153	19	-259	77	31
-67	16	-312	-47	31
-32	4	-98	-49	31
-21	-14	-32	147	31
-57	-8	102	-58	31
-79	-13	249	680	31
37	-14	-4	755	31
24	9	-215	43	31
79	47	-250	-232	31
33	76	-242	-1021	31
-19	76	-44	-1393	31
-12	62	217	-365	31
-61	-25	88	1319	31
-59	-134	-52	1105	31
-64	-122	-43	-198	31
-67	-62	45	84	31
-57	-16	74	-293	31
-17	14	111	-647	31
-24	10	172	-693	31
-57	31	101	-883	31
-38	29	-34	242	31
31	7	-183	297	31
62	6	4	-435	31
72	-14	89	-335	31
74	-3	-132	99	31
18	32	-167	676	31
3	60	-194	1116	31
-22	52	-139	367	31
-66	32	210	-279	31
-107	21	246	32	31
-79	5	198	-56	31
-34	-13	213	-322	31
-84	-22	5	-411	31
-123	4	7	-262	31
-109	-1	-134	399	31
-33	-9	-257	892	31
34	9	-166	681	31
41	15	-81	-85	31
3	32	67	-414	31
37	21	-12	-27	31
97	19	-21	-140	31
7	22	66	-158	31
28	16	102	-240	31
84	-4	101	-464	31
64	-47	85	-355	31
69	-17	107	-92	31
-116	19	-72	382	31
-174	1	-138	456	31
-37	-25	107	184	31
-44	-37	317	-361	31
-27	-12	362	-430	31
-56	-7	384	-166	31
-51	-21	270	153	31
14	-23	-95	689	31
-21	-27	-244	1041	31
7	-5	-274	1011	31
-14	39	-508	-13	31
107	68	-391	37	31
184	81	-189	-158	31
46	13	-310	-597	31
33	-71	-336	113	31
102	-66	-226	-185	31
123	-27	42	-136	31
1	2	127	-167	31
-38	20	152	-365	31
-84	14	318	-591	31
-85	8	280	-849	31
43	15	140	-596	31
42	9	199	-250	31
77	3	312	486	31
89	13	96	864	31
74	22	69	416	31
129	17	75	-39	31
124	16	-106	677	31
122	57	-40	658	31
96	109	-58	-429	31
22	91	-87	-575	31
33	52	85	-589	31
14	11	31	-715	31
-66	-72	15	-265	31
-151	-104	209	723	31
-354	-48	90	761	31
-520	2	-88	10	31
-445	-9	-102	224	31
-78	-46	21	-148	31
362	-56	46	-703	31
458	-56	-3	-489	31
389	-17	104	-126	31
249	13	-11	761	31
-27	-1	-120	598	31
12	13	-175	-9	31
112	16	-288	201	31
62	32	-288	89	31
24	31	-143	376	31
56	12	47	636	31
122	0	175	121	31
-145	-19	180	-387	31
-279	4	95	-745	31
-151	7	19	-657	31
-141	6	53	-288	31
-100	6	421	106	31
-55	3	590	37	31
-37	6	299	375	31
-16	-30	-151	793	31
12	-22	-710	-98	31
37	23	-887	-357	31
35	48	-382	67	31
47	37	-164	21	31
59	24	-146	-299	31
12	11	112	-395	31
-5	-9	113	-176	31
0	-12	118	-173	31
-46	-21	76	-44	31
-86	0	32	23	31
-100	21	92	-61	31
-57	15	181	92	31
-57	12	167	282	31
-92	-3	-57	197	31
-66	-3	9	29	31
-32	-1	267	-59	31
37	-7	356	-27	31
109	-18	292	437	31
76	-22	110	946	31
14	19	-121	217	31
81	59	-165	-587	31
92	59	17	-189	31
37	44	71	-401	31
39	-2	42	-282	31
-1	-67	38	95	31
1	-49	11	-23	31
-41	1	-56	-18	31
-67	7	-181	-264	31
-29	25	-241	-127	31
-35	33	-190	36	31
11	32	2	359	31
17	25	134	169	31
22	-11	145	-98	31
39	-13	152	245	31
69	-5	120	101	31
190	-28	84	71	31
97	-19	14	-421	31
-70	12	79	-664	31
43	40	284	-105	31
89	101	217	-36	31
59	109	59	97	31
-11	64	-106	896	31
-152	16	-575	1069	31
-105	-87	-801	91	31
-46	-152	-498	-107	31
-39	-120	-164	39	31
-82	-42	27	-20	31
-115	7	93	-57	31
-14	3	70	-68	31
37	12	78	-24	31
35	29	114	-191	31
84	24	172	-40	31
58	24	154	-107	31
22	27	69	-234	31
125	11	10	-62	31
161	-21	22	-146	31
71	-24	124	-312	31
-47	-20	108	-4	31
-142	17	126	-236	31
-234	32	157	-291	31
-132	6	53	75	31
13	14	29	-211	31
-92	0	1	-92	31
-80	13	47	-164	31
-16	22	1	-237	31
36	-6	-45	-367	31
40	-1	51	77	31
46	4	-67	944	31
88	2	-64	1269	31
-12	-6	-138	1782	31
-2	15	-367	177	31
62	41	-165	-1254	31
115	36	87	-452	31
224	36	78	-532	31
31	58	62	-464	31
-323	48	93	-447	31
-283	-9	184	-210	31
-15	-26	210	149	31
39	-16	27	-728	31
-146	-18	34	-567	31
-238	-17	126	74	31
-180	-1	208	415	31
-188	5	129	195	31
54	1	-266	608	31
495	22	-371	1999	31
447	34	-359	686	31
242	43	-302	-590	31
334	59	-85	2	31
253	37	68	-252	31
23	-101	47	-186	31
46	-247	14	-209	31
32	-72	86	-330	31
-173	157	67	-171	31
-184	125	39	-435	31
-89	-9	96	-230	31
-164	-160	216	75	31
-159	-49	174	344	31
-42	79	79	280	31
-27	69	65	180	31
11	86	-22	159	31
54	13	-99	-34	31
58	16	-137	32	31
58	-24	87	-31	31
71	-33	394	-39	31
81	-1	342	-92	31
22	-34	2	-147	31
-13	-12	-360	-143	31
7	-12	-363	-103	31
-1	17	14	77	31
-90	26	229	120	31
-107	19	92	251	31
-64	26	69	109	31
-94	26	127	-40	31
-69	27	129	-78	31
-35	-37	88	-330	31
-31	-64	-58	-198	31
1	-32	-193	66	31
9	-31	-343	218	31
32	-14	-278	69	31
129	23	-87	72	31
134	27	107	415	31
27	36	190	191	31
32	31	-8	-483	31
-7	7	-14	-923	31
-80	-7	17	-658	31
-43	-17	-20	-184	31
-36	-7	161	-17	31
-61	2	210	-22	31
-93	22	49	595	31
-64	34	-98	861	31
-40	24	19	-830	31
-19	2	344	-1271	31
38	-30	311	96	31
102	-27	1	1825	31
135	-26	-379	2818	31
1	-7	-672	657	31
37	19	-478	-404	31
139	7	-208	502	31
9	17	-142	-52	31
-59	4	17	-726	31
-46	-2	227	-831	31
-47	16	222	-444	31
-69	6	59	-367	31
-59	14	97	-557	31
-53	18	28	-207	31
-68	19	-187	-287	31
-56	24	34	-324	31
-29	-2	127	-245	31
16	-21	-65	-358	31
1	-21	38	-335	31
-84	-17	229	-203	31
-119	-5	300	245	31
24	1	203	602	31
157	-16	-21	871	31
109	-19	-267	492	31
62	35	-151	-403	31
63	135	339	-123	31
12	187	389	127	31
-97	162	178	-87	31
-120	90	-22	82	31
34	-92	-373	-296	31
130	-265	-357	-372	31
-6	-215	-189	-105	31
-109	-89	-141	-224	31
-36	-26	-119	172	31
52	-5	-34	299	31
109	-21	117	81	31
30	-3	52	385	31
30	21	-33	374	31
65	29	-14	9	31
45	39	42	-99	31
115	9	115	-412	31
121	-12	138	-397	31
191	18	116	14	31
97	29	229	278	31
-147	11	279	1192	31
-122	26	0	858	31
-116	22	-66	-477	31
-149	-35	34	-235	31
-27	-169	4	-361	31
-9	-209	-15	-468	31
-2	91	-103	-207	31
12	317	-125	-382	31
-18	237	4	-448	31
80	8	331	-420	31
184	-110	420	62	31
259	46	-26	703	31
121	71	-410	1891	31
-95	86	-645	1053	31
-92	73	-616	-507	31
-115	-7	-214	-201	31
-129	4	36	-665	31
14	-42	87	-425	31
29	-25	131	-186	31
-41	-14	142	-343	31
-77	12	106	-28	31
-295	5	148	-104	31
-435	-24	239	80	31
-226	-22	162	2	31
152	-69	-18	66	31
302	-65	-126	24	31
329	-45	-3	-64	31
399	-5	99	15	31
214	-1	61	-9	31
72	1	39	-129	31
47	8	-69	-488	31
-15	7	-57	-525	31
11	33	185	4	31
15	19	400	647	31
-50	18	395	808	31
-150	-8	184	640	31
-87	-17	-127	63	31
39	2	-162	-332	31
34	14	-31	-262	31
-88	12	-300	-369	31
-195	-2	-403	-701	31
-176	6	-308	-772	31
-81	19	-314	-80	31
86	72	20	1184	31
91	97	93	1238	31
58	78	-147	-9	31
61	51	-56	-23	31
27	-50	207	83	31
-27	-132	445	-71	31
-79	-93	434	-21	31
-46	-25	230	156	31
-86	7	111	275	31
-47	21	-74	-342	31
-66	19	-226	-447	31
-136	11	-239	-171	31
-47	-7	-254	-141	31
4	-11	-97	-167	31
54	-8	-36	-124	31
71	12	-53	-28	31
87	44	-11	114	31
173	52	-58	-63	31
186	61	-29	-642	31
-5	7	-72	-1247	31
-115	-78	1	-1350	31
51	-104	131	-297	31
63	-85	194	1581	31
-36	-57	418	2621	31
-32	-31	586	2224	31
-44	7	438	794	31
-56	34	-42	-1184	31
-99	62	-541	-860	31
-97	73	-999	-329	31
2	49	-591	-616	31
49	12	157	-282	31
34	0	192	-506	31
74	11	250	464	31
101	-3	-137	933	31
78	8	-324	268	31
112	37	-124	-150	31
94	44	-20	-390	31
-97	49	335	-533	31
-222	42	388	-127	31
-92	32	313	-26	31
-170	16	222	-217	31
-167	-24	143	-117	31
177	-34	17	-262	31
114	-14	-88	69	31
28	-7	-24	232	31
16	7	17	267	31
19	9	97	-51	31
125	-1	188	-176	31
81	-4	112	-25	31
109	-14	-15	24	31
68	-12	-106	103	31
80	-6	-205	-118	31
93	-13	-111	26	31
42	-7	-87	39	31
26	-11	-220	87	31
-48	-7	-166	71	31
-48	9	9	-117	31
-101	10	67	-36	31
-118	12	76	-30	31
-104	24	137	69	31
-125	24	151	66	31
-91	13	54	31	31
-41	-2	-121	-76	31
-5	-18	-92	-250	31
-54	-11	99	-347	31
1	0	217	-427	31
85	9	299	-377	31
81	46	534	187	31
106	57	391	1499	31
60	21	-394	1927	31
-15	-62	-982	937	31
-22	-147	-1205	-103	31
12	-154	-780	-713	31
-24	-97	146	-838	31
-54	-2	673	-385	31
-22	57	617	464	31
-102	55	492	322	31
-156	52	215	-132	31
-97	64	-98	-22	31
-43	54	-175	-706	31
79	6	-422	-743	31
107	20	-293	29	31
-228	74	1	-280	31
-611	62	-5	-269	31
-534	34	41	234	31
40	40	134	-302	31
390	34	104	-349	31
457	2	142	161	31
397	7	273	378	31
120	32	249	336	31
141	37	257	-41	31
-9	27	119	44	31
168	9	-56	-340	31
347	-26	-91	-375	31
32	-94	-79	-86	31
133	-115	3	141	31
49	-72	-25	478	31
12	-37	-5	-185	31
89	-11	-1	-406	31
63	1	-110	-237	31
122	2	-177	-176	31
78	16	-144	527	31
57	24	-5	881	31
16	27	118	710	31
-38	24	156	787	31
-91	11	194	111	31
-5	-14	362	-363	31
7	-29	368	-217	31
-96	-14	225	-500	31
-119	-5	191	-415	31
-119	-1	-61	-341	31
-67	9	-304	326	31
-110	29	-317	763	31
-176	69	-463	-89	31
-338	65	-578	-340	31
-405	16	-475	21	31
-176	1	-342	-173	31
181	-10	-113	-430	31
417	-22	200	-349	31
362	17	373	111	31
296	81	397	1004	31
109	113	235	993	31
107	92	33	-468	31
7	45	6	-992	31
-217	-122	26	-415	31
-59	-353	-39	-305	31
-107	-358	-42	127	31
-104	-11	12	112	31
15	289	13	0	31
28	207	119	296	31
-116	-33	179	-13	31
-101	-84	152	-340	31
65	76	125	-242	31
68	79	-52	23	31
87	21	-184	295	31
32	11	-152	378	31
66	6	-62	240	31
27	18	32	390	31
11	-4	126	241	31
-11	7	170	-42	31
-88	-9	135	-268	31
-62	20	104	-237	31
-87	36	-96	-4	31
-51	12	-315	-368	31
-81	6	-262	-435	31
-76	-37	-186	-222	31
-19	-41	-179	57	31
10	-42	-50	587	31
43	-23	188	512	31
37	26	437	-249	31
145	20	528	-254	31
107	-14	360	204	31
-118	-22	-4	297	31
-145	1	-231	179	31
-7	14	-108	-52	31
51	11	-132	-429	31
49	17	-121	-662	31
22	8	11	-149	31
-44	10	-139	174	31
-76	29	-119	771	31
-86	25	0	497	31
-154	21	-191	-334	31
-97	1	-276	93	31
31	-17	-57	-229	31
-13	-2	136	-216	31
-8	1	315	37	31
62	2	404	-93	31
61	4	107	-92	31
72	12	-204	187	31
92	0	-380	1134	31
80	-6	-270	805	31
102	27	77	-262	31
89	6	106	-410	31
-56	-6	-61	-240	31
-298	17	-166	-249	31
-326	17	-157	-538	31
-179	29	-66	-736	31
-33	36	17	-160	31
189	37	24	-8	31
242	47	12	-315	31
102	1	151	138	31
-92	-101	260	519	31
95	-106	308	428	31
269	-34	152	424	31
57	-16	-146	-58	31
92	50	-197	-408	31
159	106	-239	-136	31
86	77	-189	-288	31
-4	46	178	-54	31
-121	-18	464	102	31
-114	-102	427	300	31
-2	-126	222	387	31
-55	-62	139	-211	31
-103	-21	-29	-330	31
-51	-1	-244	-357	31
-101	36	-132	24	31
-43	57	-39	384	31
22	59	119	252	31
66	31	125	86	31
81	16	-125	-225	31
65	2	-152	-42	31
77	-14	-177	229	31
45	-31	54	516	31
59	-9	274	508	31
0	31	42	-270	31
-25	21	-129	-572	31
-35	20	-161	-246	31
-14	15	-4	41	31
11	25	311	526	31
-146	37	458	412	31
-133	21	324	29	31
-5	19	7	-86	31
-16	18	-387	-449	31
3	9	-698	-387	31
92	11	-472	-444	31
166	26	49	-323	31
176	-3	142	-137	31
97	-27	-89	-295	31
-9	-18	-326	26	31
-53	-69	-312	143	31
40	-129	-1	144	31
81	-94	97	865	31
-61	-31	107	1243	31
-173	-7	120	318	31
-334	27	-34	169	31
-237	52	-77	194	31
97	66	-75	12	31
52	84	-54	125	31
-50	92	151	-419	31
87	69	283	-305	31
122	31	210	-484	31
-7	6	165	-502	31
81	-31	246	-240	31
136	-43	368	-255	31
120	-14	406	-64	31
97	1	139	-31	31
20	-9	-509	16	31
78	-9	-837	-398	31
-1	-1	-438	-455	31
-70	13	-27	167	31
-217	31	44	602	31
-384	19	105	249	31
-244	12	93	49	31
28	84	181	325	31
81	114	302	140	31
83	51	222	82	31
291	-75	101	-121	31
217	-280	-194	-593	31
134	-162	-111	-458	31
99	190	175	416	31
22	181	267	627	31
84	-101	315	584	31
125	-229	39	297	31
138	-17	-277	-654	31
-23	86	-423	-820	31
-96	46	-230	-771	31
-86	27	-2	-277	31
-87	-3	21	347	31
-72	48	125	569	31
-179	4	3	677	31
-151	-7	-7	251	31
-25	-11	128	-216	31
11	-29	-24	-529	31
-171	-12	-45	-652	31
-355	-10	44	-42	31
-128	21	-5	619	31
73	24	92	941	31
219	46	44	875	31
315	58	-85	-96	31
247	47	59	-348	31
200	0	-132	71	31
34	-37	-285	570	31
41	-28	-235	452	31
34	-28	-313	-440	31
-101	6	-139	-65	31
-159	17	99	103	31
-139	8	264	-35	31
-26	20	384	128	31
-139	23	349	-361	31
-184	22	219	-549	31
39	17	74	-387	31
171	9	-49	-227	31
82	17	-157	-504	31
-15	35	-128	-571	31
69	7	106	-240	31
59	-30	210	-157	31
-17	-37	60	274	31
26	-38	-17	599	31
36	-14	122	365	31
113	-1	435	137	31
45	6	481	-92	31
-220	-2	252	-161	31
-300	2	-24	-367	31
-279	26	-565	-434	31
-46	12	-748	514	31
124	16	-465	290	31
-62	16	-422	1	31
-48	14	-273	493	31
91	24	132	358	31
99	23	257	660	31
102	27	189	-250	31
109	10	93	-1344	31
89	7	-1	-956	31
51	1	-94	384	31
24	-15	-318	1353	31
-13	-13	-197	553	31
-29	-14	11	-24	31
-31	-4	105	-283	31
-167	-8	347	-94	31
-298	11	295	413	31
-51	88	122	364	31
86	172	-98	74	31
-77	189	-140	-448	31
45	124	102	-334	31
95	-16	-99	-186	31
-61	-214	-136	-171	31
-27	-282	70	-234	31
134	-215	161	-502	31
232	-137	351	-410	31
159	-37	293	-50	31
177	6	201	464	31
151	37	-56	284	31
59	85	-257	-76	31
24	53	-12	229	31
-114	40	86	338	31
-105	29	82	85	31
-44	-25	114	111	31
1	-44	57	79	31
3	-42	181	-187	31
-51	13	281	-109	31
-199	42	9	-292	31
-454	24	-294	-182	31
-214	46	-487	492	31
274	37	-398	330	31
444	24	-140	51	31
252	21	-162	1	31
114	11	-187	9	31
147	16	21	17	31
2	26	190	-263	31
31	40	310	-103	31
-50	27	363	395	31
-177	-1	121	440	31
-106	-17	-123	34	31
-108	-27	-312	-467	31
-100	-2	-388	-542	31
-77	6	-255	65	31
42	-6	-132	113	31
170	22	105	-385	31
220	9	134	-157	31
-2	-17	-6	-86	31
-115	-9	18	176	31
100	1	163	472	31
1	26	286	-108	31
-21	23	227	-449	31
-31	14	263	-324	31
-116	9	129	245	31
65	-20	-144	969	31
8	-49	-167	613	31
-170	-49	-325	-703	31
-166	-11	-192	-1130	31
-45	-2	197	-431	31
4	-4	184	1155	31
3	14	427	2116	31
-32	32	586	903	31
-146	31	207	-204	31
-146	24	-215	-698	31
56	36	-603	-826	31
260	34	-596	-763	31
259	8	-50	-341	31
195	-95	208	157	31
155	-170	89	-828	31
62	49	237	-1091	31
-67	333	292	-61	31
-99	305	165	328	31
-98	-6	61	718	31
-137	-249	-264	817	31
-136	-129	-585	269	31
-84	-61	-621	-204	31
-37	-58	-493	-402	31
-36	-10	-282	127	31
4	-36	-79	266	31
56	36	123	177	31
94	21	376	264	31
106	49	447	27	31
19	83	477	-167	31
-24	-19	467	-238	31
34	-64	351	-39	31
32	31	223	-105	31
-12	97	-52	-150	31
-57	-21	-292	-316	31
-110	-127	-405	-753	31
-114	-29	-300	-555	31
-118	249	-44	-201	31
-124	212	112	290	31
-71	47	138	548	31
-7	-35	-29	547	31
-1	-179	-272	1191	31
16	-228	-392	1144	31
106	-243	-327	328	31
208	-59	250	-177	31
64	10	952	-602	31
-121	-37	1055	-1044	31
52	12	919	-655	31
99	-31	500	650	31
-43	18	-167	575	31
-10	29	-726	523	31
98	41	-749	957	31
15	64	-350	-360	31
-54	51	-393	-512	31
-38	127	-518	-144	31
-79	90	-524	-407	31
17	9	-425	-273	31
14	-13	-59	-392	31
-4	-97	171	-232	31
59	-245	217	-245	31
124	-119	255	14	31
171	245	132	28	31
134	428	-9	-28	31
132	293	149	55	31
106	167	184	-81	31
49	518	98	-177	31
-34	544	26	-158	31
-64	26	-256	283	31
10	-249	-393	475	31
83	-288	-347	289	31
19	-320	-114	-40	31
-139	-387	279	-138	31
-93	-244	443	-373	31
-92	-229	355	-268	31
-217	-357	257	151	31
-100	-248	274	472	31
-27	-116	216	716	31
-195	54	139	95	31
-262	84	205	-297	31
9	26	166	-254	31
340	60	-44	-169	31
362	86	-37	-158	31
163	119	266	-77	31
151	69	365	64	31
195	26	112	16	31
80	-1	-177	319	31
-10	-35	-397	180	31
-131	-6	-319	18	31
-157	-31	-247	-71	31
-31	-137	-270	-367	31
-19	-54	-109	-533	31
-82	197	-232	-615	31
26	250	-242	211	31
99	102	-253	1151	31
43	-147	-353	791	31
59	-125	92	286	31
67	83	402	-29	31
81	70	227	-468	31
52	-4	2	-181	31
-32	-76	1	8	31
-69	87	-114	-91	31
-106	225	-177	-58	31
-123	74	-76	-179	31
-133	-51	-143	-382	31
-135	-41	25	-414	31
-97	66	217	-276	31
-58	68	330	100	31
-37	39	380	-164	31
-9	9	200	-752	31
14	-1	24	-276	31
-5	6	-153	705	31
-79	44	-229	1813	31
-126	190	-44	1390	31
-14	185	318	-249	31
137	190	443	-838	31
111	264	368	-921	31
74	-37	229	-295	31
111	-544	-405	401	31
-9	-610	-691	557	31
-73	-204	-179	300	31
-82	37	52	-192	31
-129	52	-216	-134	31
-67	90	-403	-51	31
-51	101	-465	80	31
14	110	-485	-36	31
82	25	77	266	31
63	-77	773	836	31
77	-66	772	775	31
86	-51	495	55	31
82	-41	141	-1034	31
86	-6	-35	-1285	31
59	8	305	-1625	31
17	1	399	-1436	31
24	-12	106	-335	31
-52	-16	-38	630	31
-96	2	-339	1041	31
-21	21	-628	706	31
-53	32	-528	598	31
-72	40	-704	1019	31
-27	66	-520	371	31
-18	89	77	-166	31
-25	97	179	315	31
-27	81	-92	19	31
26	45	-277	162	31
42	35	-53	-68	31
27	36	-57	-601	31
59	44	288	-613	31
87	19	890	-238	31
66	-6	648	157	31
36	-14	174	435	31
37	-76	-79	420	31
-20	-99	16	-315	31
-59	-49	124	-10	31
-64	17	37	-106	31
-87	42	50	-442	31
-30	22	11	-350	31
-8	1	52	-458	31
2	-39	261	179	31
19	-48	379	697	31
29	-54	385	271	31
64	-47	182	167	31
11	-25	-225	169	31
0	-16	-593	-29	31
72	30	-887	82	31
77	76	-723	-322	31
41	97	-265	-187	31
11	76	58	-83	31
-53	8	290	-214	31
-99	-35	164	-9	31
-116	-26	5	7	31
-52	6	31	-34	31
-12	31	129	41	31
-76	3	127	234	31
-27	-42	78	106	31
-23	-83	120	-44	31
-33	-120	100	-370	31
38	-22	179	-412	31
72	69	76	2	31
116	80	-76	123	31
140	87	-87	272	31
132	6	-87	107	31
104	-30	127	-137	31
45	-24	247	298	31
-34	-44	-6	587	31
-64	-29	-368	658	31
-73	-42	-370	513	31
-146	-46	156	-4	31
-132	-9	608	-56	31
-53	1	650	-273	31
-57	16	248	-904	31
15	59	-513	-1405	31
81	77	-1050	-939	31
38	62	-1052	-180	31
-76	24	-616	330	31
-188	4	-159	1258	31
-68	16	179	688	31
63	-2	297	152	31
7	-4	210	391	31
-387	35	290	148	31
-591	55	101	312	31
-252	212	-279	-208	31
-41	441	-44	-1043	31
316	232	410	-675	31
575	-445	877	599	31
525	-702	1183	959	31
503	-172	785	903	31
279	139	205	1264	31
133	31	9	366	31
-35	10	-266	-1211	31
-164	-1	-533	-1958	31
14	21	-445	-1172	31
230	1	-109	266	31
199	-7	437	949	31
128	-6	397	1134	31
179	-31	-253	863	31
39	-14	-681	-42	31
-42	-29	-195	-808	31
-97	-13	296	-685	31
-126	1	-374	-313	31
-121	62	-1112	-527	31
-223	124	-548	-392	31
-227	62	417	572	31
-208	37	395	785	31
-111	146	118	-910	31
-6	263	230	-1577	31
35	240	738	598	31
56	82	422	1059	31
117	-60	-654	182	31
171	-119	-801	21	31
127	-209	-795	-273	31
121	-290	-1002	350	31
44	-102	19	780	31
9	270	543	41	31
17	333	140	-783	31
-97	229	732	-497	31
-107	182	1458	-27	31
-90	-65	1494	-493	31
-137	-342	534	22	31
-104	-428	-841	159	31
-49	-271	-1841	-1059	31
22	-73	-2050	-483	31
32	-49	-320	771	31
-31	-83	1634	1194	31
-49	-122	1975	1466	31
-11	-36	1484	983	31
33	85	-139	405	31
-7	75	-1436	107	31
-26	45	-1435	-288	31
-34	11	250	-378	31
-86	1	1321	-317	31
-106	13	420	-133	31
-82	42	-487	-102	31
-10	81	-1024	-645	31
-64	97	-192	-713	31
-112	79	165	-159	31
-42	49	225	-384	31
-59	43	409	-113	31
-63	37	-144	651	31
15	7	-336	6	31
63	-16	-520	-447	31
86	-6	-348	115	31
115	13	275	805	31
118	32	620	444	31
90	24	-86	-420	31
58	56	-1190	-612	31
11	107	-1099	-50	31
-76	110	109	299	31
-80	114	663	-590	31
-52	39	648	-125	31
-55	-87	623	460	31
-66	-180	516	260	31
-96	-158	546	636	31
-6	-85	-72	419	31
64	-49	-501	-27	31
119	29	-200	-469	31
188	6	956	-210	31
169	3	1592	162	31
162	75	141	417	31
174	31	-1046	405	31
172	12	-1346	19	31
103	-11	-1435	-266	31
29	-69	-343	-1190	31
-26	-92	208	-1216	31
-54	-111	-14	-517	31
-36	-79	290	-251	31
-71	-46	974	430	31
-86	-16	1639	314	31
-112	-27	1007	2	31
-123	-128	-395	201	31
-56	114	-590	-178	31
-19	473	213	217	31
-10	275	-1662	980	31
21	-166	-3083	1338	31
37	-315	-734	519	31
-23	-14	1199	-747	31
5	262	1640	-945	31
125	200	739	-745	31
150	91	124	-161	31
116	44	235	57	31
83	16	123	527	31
26	-41	95	1304	31
-113	-118	449	902	31
-210	-232	1188	457	31
-267	-161	-315	300	31
-241	14	-2670	27	31
-102	62	-2064	-436	31
-7	137	-36	-1003	31
96	172	1148	-1132	31
117	109	979	-988	31
97	18	561	-202	31
102	-44	842	438	31
88	-91	576	233	31
91	-101	624	-369	31
131	-22	540	-382	31
234	66	-213	-337	31
219	102	-508	4	31
51	31	-165	1245	31
-62	6	408	910	31
-34	39	-118	1011	31
-73	24	-1320	1654	31
-202	27	-1566	-95	31
-204	10	-786	-570	31
-83	-21	-324	-134	31
30	-31	486	-641	31
53	14	796	-1220	31
71	68	893	-1250	31
92	49	1423	-419	31
117	-7	602	-119	31
17	-54	-1413	88	31
-92	-56	-2531	1297	31
-21	-17	-2364	1665	31
52	-7	-1004	407	31
119	-26	2055	-692	31
46	30	2358	-749	31
-132	50	759	-354	31
-237	46	74	-810	31
-300	-16	-127	-663	31
-302	-107	948	-586	31
-271	-67	976	-402	31
-204	-106	1313	277	31
-57	-104	1415	497	31
127	-41	-1014	1061	31
217	-56	-2083	-193	31
275	-22	-1117	-270	31
288	37	-309	1350	31
266	79	194	616	31
153	38	458	-357	31
22	-13	269	-1161	31
-2	-2	501	-1284	31
-89	-2	857	810	31
-38	9	-207	1852	31
-38	10	-1168	42	31
-101	-19	-76	-373	31
-71	-54	758	32	31
-75	-76	47	-809	31
-84	-42	-1131	565	31
-136	74	-1366	2047	31
-104	111	-410	337	31
-34	69	667	-1476	31
64	77	1295	82	31
177	34	467	-558	31
210	29	-1111	-1725	31
124	-1	-1975	-106	31
39	-91	-508	167	31
48	-63	1078	1147	31
-34	-64	1744	705	31
-46	-74	1854	156	31
16	-8	-380	-69	31
26	62	-1927	-641	31
-39	102	-1702	-288	31
-147	67	380	-724	31
-127	51	1508	-433	31
-27	7	523	-580	31
32	-67	594	-897	31
65	-54	1007	340	31
123	4	1626	2068	31
142	51	233	1948	31
157	86	-2251	1019	31
137	83	-2195	36	31
76	19	-1010	-661	31
58	-32	-748	-487	31
69	-34	-1017	-750	31
32	9	-272	-688	31
-166	44	737	-487	31
-278	59	1803	-151	31
-247	26	1716	-196	31
-242	-56	1405	-463	31
-227	-66	2023	-906	31
-131	-49	849	-495	31
-52	11	-620	916	31
57	87	-1386	1492	31
222	124	-966	1023	31
193	102	-544	796	31
134	12	-1523	736	31
111	25	-1535	-805	31
116	45	-558	-1123	31
146	-6	631	-766	31
101	-57	228	-660	31
26	-67	-82	-156	31
-71	-12	1793	187	31
-156	-7	1843	122	31
-161	-26	-232	578	31
-107	-32	-1788	538	31
-197	-11	-441	-297	31
-242	15	1228	182	31
-209	-9	-207	301	31
-147	19	-774	-179	31
-16	41	-355	-973	31
99	-79	310	-829	31
316	-134	932	-789	31
322	-114	1019	196	31
209	-67	1262	1837	31
106	32	203	1481	31
-32	27	-292	1931	31
-89	58	-1420	1619	31
-159	71	-1967	-812	31
-79	-3	-689	-1533	31
-46	-49	-529	-430	31
-22	-95	-493	-950	31
93	-22	-482	-1271	31
29	60	-149	-735	31
-84	94	199	-483	31
-205	124	884	22	31
-116	71	1586	224	31
71	-18	999	-493	31
-12	-101	974	-1709	31
-36	-95	1510	-1439	31
84	77	-295	1081	31
171	134	-2362	3607	31
197	12	-1387	3190	31
96	47	-483	2031	31
20	101	-742	226	31
-32	101	-803	-1775	31
-55	130	-111	-2228	31
-36	95	706	-2296	31
-25	-27	727	-849	31
31	-134	1046	667	31
66	-76	729	1192	31
12	-72	747	-258	31
-152	-114	1338	-1785	31
-142	-119	997	-1896	31
55	-74	232	-1204	31
107	42	-1665	876	31
-7	20	-1726	2988	31
-96	18	461	4000	31
36	62	66	1158	31
131	18	-523	-1065	31
52	22	11	-111	31
0	15	-50	-976	31
-13	-1	369	-1115	31
-63	24	405	-417	31
-195	-9	390	-151	31
-197	-49	558	542	31
-66	-17	1238	856	31
35	-18	1019	-164	31
133	-54	-1425	-423	31
154	-31	-1988	45	31
141	7	-722	212	31
131	38	-270	1468	31
36	76	-1100	785	31
19	109	-1371	-1351	31
109	65	-642	-1291	31
127	21	-487	-873	31
109	81	130	-424	31
-57	67	1324	-9	31
-178	-13	2358	-886	31
-194	-70	3039	-1202	31
-166	-102	1777	-202	31
23	-62	-2100	2697	31
64	-207	-2818	3748	31
26	-438	-397	923	31
21	-180	-254	-1509	31
27	206	114	-2926	31
29	167	876	-2227	31
-75	14	531	139	31
-212	107	142	1073	31
-310	224	-726	965	31
-195	138	-1292	469	31
59	94	-325	-151	31
242	84	428	-446	31
310	75	74	-643	31
234	26	38	-431	31
205	-62	841	-71	31
190	-22	1486	685	31
66	-29	1133	1289	31
-1	-38	555	845	31
-41	11	-779	446	31
-46	24	-1777	-932	31
-49	-21	-1039	-1786	31
-29	-46	367	-328	31
12	-31	861	410	31
-84	-49	204	392	31
-164	26	277	727	31
-109	51	638	672	31
16	4	10	855	31
139	36	-1102	-231	31
141	-4	-418	-1485	31
16	-61	1099	-1161	31
-120	-55	769	-218	31
-186	11	-906	1321	31
-172	22	-1486	229	31
-48	-58	-90	-1059	31
59	-24	922	352	31
49	19	156	2530	31
54	28	-1119	1792	31
27	26	319	-1274	31
-19	11	1225	-1229	31
34	-1	38	-139	31
67	-65	137	52	31
19	-47	-325	-382	31
49	-9	-380	-566	31
64	25	-553	-823	31
13	32	-1055	-1447	31
51	-31	-106	-1043	31
24	-2	786	184	31
-81	58	400	1076	31
-127	21	-338	298	31
-135	-17	295	414	31
-96	-32	1744	1117	31
4	-26	1756	856	31
81	64	-434	213	31
-61	146	-1913	-86	31
-188	144	-1100	-628	31
-98	44	89	-1736	31
-49	-27	598	-397	31
-1	-64	973	2431	31
85	-40	-650	2461	31
106	83	-2292	287	31
115	89	-1362	-850	31
97	44	71	-1446	31
57	-10	856	-1021	31
22	-52	-177	-540	31
29	-90	-24	-688	31
45	-138	1035	586	31
-13	-102	941	1041	31
-17	24	610	36	31
-54	106	-334	-224	31
-123	42	-429	-165	31
-122	69	-503	-802	31
-84	122	-110	-806	31
-14	17	1034	-619	31
-55	-49	1519	6	31
-73	-11	1846	1078	31
-7	-19	806	1096	31
139	-7	-981	188	31
217	24	-1927	-180	31
192	-11	-1434	983	31
306	-25	517	201	31
205	-63	1153	-938	31
29	-75	111	-515	31
-14	-27	-982	-568	31
-49	41	-1279	-310	31
-74	72	-488	475	31
-134	31	127	364	31
-83	-6	267	-294	31
-46	-6	170	963	31
-68	19	292	1342	31
-70	-46	850	370	31
-63	-71	1020	43	31
-29	7	-20	-80	31
-26	66	-610	62	31
19	251	-511	-567	31
58	365	-700	-384	31
76	227	-279	-338	31
182	61	-382	-951	31
222	-173	201	-345	31
163	-406	1137	382	31
62	-424	922	731	31
-39	-251	501	-197	31
-90	-59	-228	-329	31
-97	2	-1130	233	31
-68	43	-920	-515	31
-69	37	-101	3	31
-102	-19	268	742	31
-70	-16	1039	-312	31
-2	-21	234	-1023	31
4	30	-804	-331	31
-3	77	-606	1310	31
74	69	-358	1485	31
129	83	-86	-835	31
64	75	-136	-858	31
-27	43	84	-117	31
-1	7	42	-122	31
25	-11	500	-255	31
-65	-24	684	-1025	31
-97	-22	389	-564	31
-82	20	397	-220	31
-121	27	36	836	31
-103	0	430	1328	31
-34	-26	331	604	31
-22	-14	-114	1321	31
21	19	-356	1306	31
97	7	-524	-23	31
123	2	-174	-673	31
142	34	-294	-1204	31
102	37	111	-1129	31
76	32	84	82	31
49	41	-464	497	31
-21	24	199	114	31
-49	17	469	-173	31
-76	39	-120	-124	31
-68	13	-132	-152	31
-32	-18	146	-552	31
-41	-37	-197	-1053	31
-154	-49	-440	-274	31
-162	-12	398	1600	31
-7	17	883	1295	31
-58	12	-206	-648	31
-84	-6	-1288	-1479	31
-2	-19	-915	-458	31
96	3	591	1773	31
240	7	854	1717	31
147	-65	600	431	31
94	-151	51	407	31
68	-24	-680	-670	31
-17	256	6	-602	31
-27	281	354	-462	31
-63	2	633	-773	31
-29	-166	1040	-144	31
-29	24	-45	-525	31
-18	121	-2200	-831	31
-12	37	-3284	-182	31
-76	-32	-2079	1066	31
-59	-59	857	672	31
19	-42	2358	-171	31
72	-76	1345	-59	31
97	135	307	-298	31
51	311	136	-55	31
-99	219	267	33	31
-151	181	221	251	31
-31	35	406	257	31
28	-246	340	27	31
-67	-411	175	126	31
-67	-335	175	-10	31
49	-136	213	121	31
87	-39	328	-10	31
27	-2	197	-1	31
33	26	244	-102	31
111	9	108	-269	31
78	-10	-215	-279	31
21	3	-185	-227	31
40	6	155	119	31
89	41	289	-217	31
80	130	575	-674	31
44	127	715	-196	31
29	100	-907	1104	31
41	144	-2183	1702	31
68	61	-1204	232	31
6	-98	-549	-946	31
-54	-157	-408	-536	31
-43	-142	349	-503	31
-127	-73	205	167	31
-479	-4	-185	969	31
-979	2	-103	631	31
-1109	7	106	-204	31
-756	6	622	-740	31
-482	-2	505	-107	31
-593	12	49	158	31
-310	-3	-89	-380	31
723	17	97	-585	31
1513	44	330	524	31
1307	41	355	826	31
2	29	312	-289	31
-385	-2	61	-224	31
571	22	-41	660	31
914	61	-208	845	31
1079	71	-351	319	31
736	68	-373	-746	31
360	57	-412	-1835	31
437	-37	74	-848	31
19	-219	362	804	31
-51	-141	333	1312	31
-20	167	241	372	31
-211	205	-109	-409	31
-393	-46	-160	49	31
-523	-129	190	-258	31
-407	113	447	-101	31
-199	352	124	-184	31
-244	449	-255	-231	31
-818	327	-402	-216	31
-730	71	-348	-461	31
182	-246	-82	-99	31
572	-649	108	-74	31
522	-601	235	365	31
-500	-196	397	507	31
-2600	-6	439	254	31
-2877	-43	-233	66	31
-989	6	-464	1	31
565	52	-337	-304	31
1369	-36	-397	-499	31
971	69	365	-130	31
736	368	550	-192	31
633	465	188	606	31
-1949	220	56	1311	31
-3220	-121	-407	-190	31
-844	-290	-352	-703	31
2447	-183	-230	87	31
4000	-57	-343	-361	31
3320	66	17	-330	31
2277	190	497	6	31
1834	235	441	286	31
450	118	-240	426	31
104	-64	195	225	31
-116	-55	646	303	31
-362	-159	-97	348	31
-176	-282	-556	154	31
-332	-307	-172	-243	31
-289	-160	341	-236	31
-348	-10	98	-245	31
-265	-56	-97	-310	31
-327	18	-184	-279	31
-413	23	-54	-31	31
-284	29	-21	431	31
-354	59	-67	179	31
-334	54	76	-419	31
-382	104	151	-342	31
-388	54	267	-422	31
-330	-1	132	-620	31
-312	-15	124	-2	31
-335	22	-77	1348	31
-323	51	-242	1571	31
-274	51	-21	-147	31
-314	76	18	-586	31
-255	136	204	-267	31
-156	160	523	-612	31
-110	185	239	-341	31
-59	265	-317	257	31
-17	202	-292	638	31
9	259	226	253	31
46	396	350	202	31
3	297	-121	-75	31
-68	150	-561	-281	31
-71	-177	-615	-29	31
-131	-458	-149	-745	31
-192	-363	162	-638	31
-116	-311	79	208	31
-53	-381	-210	1204	31
-119	-351	-288	703	31
-126	-234	-27	-593	31
-121	37	141	-127	31
27	197	455	-733	31
247	270	701	-1336	31
189	479	452	-1019	31
211	147	-217	397	31
144	-581	-795	2763	31
-54	-754	-1253	635	31
12	-426	-915	-1552	31
157	-336	282	556	31
81	-307	615	344	31
-182	-6	378	-648	31
-543	46	410	366	31
-1760	116	388	1062	31
-2843	223	243	682	31
-1299	178	250	-119	31
1241	243	195	-255	31
1871	272	184	-295	31
1486	232	129	70	31
1051	94	-321	32	31
779	33	-472	-471	31
502	-14	-229	-226	31
690	-87	260	-124	31
1150	-32	396	-294	31
873	77	71	-132	31
588	141	-245	-241	31
270	71	-422	-364	31
220	36	-110	-470	31
61	41	217	-467	31
-165	148	300	212	31
-95	265	34	711	31
-326	160	-380	707	31
-510	43	-469	370	31
-693	-31	-250	-75	31
-693	-150	278	-12	31
-458	-272	421	1	31
-553	-205	284	-220	31
-933	12	165	-544	31
-656	37	12	-1384	31
306	22	164	-1415	31
588	40	42	-226	31
231	4	-51	2188	31
207	55	-212	2998	31
-700	74	-324	136	31
-2081	62	-71	-322	31
-1693	59	-275	228	31
199	44	47	-745	31
1601	52	422	-240	31
1621	33	454	-495	31
406	22	398	-749	31
-610	67	-62	-472	31
21	169	-229	159	31
658	185	-361	861	31
1030	25	-136	682	31
763	-109	-92	183	31
146	-77	-142	-449	31
256	-2	39	150	31
443	-139	-151	370	31
597	-431	-4	-171	31
168	-383	2	-474	31
-79	-20	151	-533	31
-159	130	482	-505	31
-207	60	317	-214	31
177	12	101	366	31
-42	-27	-147	291	31
-286	-14	-570	459	31
-789	36	-388	583	31
-2134	117	234	433	31
-2860	190	397	-29	31
-1232	185	654	-325	31
1367	172	789	54	31
1356	70	842	-25	31
412	-53	690	191	31
-653	11	-398	400	31
-3022	122	-1335	-385	31
-3124	72	-1765	-556	31
-133	50	-1762	-353	31
2289	14	-854	-527	31
2887	-160	-72	-84	31
2744	-318	608	129	31
2230	-323	970	297	31
1393	-77	386	194	31
732	11	-32	-398	31
791	-79	-240	11	31
342	-29	1	41	31
-228	44	367	-457	31
-209	187	173	-261	31
-400	327	21	154	31
-139	203	-104	340	31
-245	-19	152	266	31
-154	-180	704	285	31
-276	-351	734	584	31
-1347	-296	244	858	31
-2316	-108	-63	231	31
-2735	-69	-485	-435	31
-556	-8	-718	-819	31
1488	43	-1	-496	31
1335	-21	176	-108	31
1239	86	152	-289	31
1019	501	362	-107	31
677	531	381	220	31
51	41	578	480	31
-585	-192	450	-626	31
-1169	-172	57	-392	31
-462	-100	-493	578	31
1157	57	-775	270	31
780	179	-546	197	31
299	159	-122	-247	31
-265	119	285	586	31
-1826	39	136	1637	31
-2006	11	-126	375	31
-420	31	-188	-635	31
978	-175	-230	-380	31
686	-362	-147	-570	31
-580	-376	-12	-366	31
-1749	-46	237	-206	31
-1733	189	432	-169	31
-196	127	477	27	31
1255	240	262	-46	31
1855	96	-112	132	31
824	-220	-350	41	31
-1143	-219	-378	-259	31
-1499	34	-81	-730	31
-904	41	37	-748	31
-758	-149	-122	-70	31
524	-128	-196	252	31
2820	-180	98	-471	31
2788	-164	849	-1000	31
2083	-86	1247	873	31
1427	52	1016	4000	31
-62	317	100	4000	31
-988	424	-1297	-982	31
-414	343	-1569	-2690	31
1272	127	-959	-1648	31
524	-17	-720	-695	31
294	-165	-241	151	31
576	-260	48	-749	31
-929	-139	172	-662	31
-1461	-22	400	-655	31
-1209	-16	362	-704	31
-1270	6	393	-254	31
-1919	31	171	414	31
-1041	-10	42	1012	31
325	9	-98	-380	31
906	27	-229	-663	31
690	42	-29	634	31
689	62	6	1024	31
789	44	-260	1076	31
287	39	-99	672	31
190	26	516	265	31
-1371	31	556	6	31
-868	16	417	-126	31
1104	-6	300	-91	31
1397	-8	104	-582	31
1336	-18	66	-784	31
618	-21	-32	-462	31
294	-27	-58	491	31
188	-13	-4	1527	31
-99	17	-104	935	31
-236	29	-58	10	31
-291	22	-119	262	31
-492	21	-424	-601	31
-1051	34	-292	-1345	31
-2578	67	-249	-900	31
-3338	89	114	-1002	31
-360	61	1007	-569	31
1855	-4	1033	491	31
1528	-50	430	1220	31
1454	-82	-304	29	31
-132	-131	-911	-916	31
-1345	-138	-997	-277	31
297	-135	-701	-8	31
1097	-22	-248	980	31
458	281	-90	683	31
949	347	42	-285	31
640	119	438	-176	31
137	-32	363	-338	31
-66	-9	177	582	31
-1332	51	19	893	31
-1412	23	-23	-239	31
54	-9	452	-674	31
1096	-39	468	-303	31
635	-66	149	522	31
194	-42	-169	1069	31
-169	-1	-653	-277	31
-360	-27	-491	-1086	31
-269	-71	-59	-84	31
-224	-26	-74	-278	31
411	65	-65	266	31
168	277	380	1061	31
-237	448	848	501	31
-325	427	457	-289	31
-187	272	-79	-865	31
399	1	-463	-518	31
0	-406	-777	104	31
-989	-889	-392	401	31
-1681	-807	95	81	31
-1650	-280	413	-136	31
93	28	463	-228	31
1565	103	450	-116	31
1244	73	358	159	31
689	45	-177	925	31
289	-8	-770	893	31
530	-39	-1289	-507	31
500	6	-961	-944	31
272	52	182	-758	31
312	44	660	-283	31
31	76	545	-448	31
-374	131	367	-785	31
-1434	120	49	-189	31
-1599	77	17	553	31
-1238	18	56	708	31
-477	-9	71	505	31
1222	-111	187	736	31
670	-139	127	498	31
-1269	-149	108	-459	31
-231	-195	120	-781	31
2117	-27	84	-66	31
2026	139	97	545	31
1345	353	60	507	31
156	357	172	405	31
-383	129	169	469	31
324	113	-74	52	31
57	-61	-119	-74	31
161	-182	-229	-122	31
58	-32	-231	-444	31
-20	54	62	-341	31
-154	68	417	-255	31
-403	24	836	-21	31
-229	-9	634	849	31
-392	-17	-358	832	31
-147	-34	-865	-748	31
-107	-34	-754	-894	31
-225	-12	-575	-552	31
-228	24	-159	-570	31
-314	61	-103	-295	31
-128	89	-245	-340	31
-30	76	-172	83	31
-333	48	-116	224	31
-620	7	144	392	31
-93	-10	412	79	31
295	6	764	-580	31
59	11	892	-469	31
159	13	502	152	31
145	-16	15	2027	31
-72	-27	-518	2024	31
-144	-9	-744	-608	31
-168	-35	-463	-756	31
-99	-53	-67	1100	31
-96	-21	-9	1018	31
-131	23	-106	-212	31
-237	47	-184	-1483	31
-203	44	-251	-1430	31
-57	-9	32	-54	31
-16	-52	350	478	31
4	-61	438	810	31
-161	-81	260	-38	31
-1244	-74	-163	-2	31
-1621	-49	-398	51	31
-126	-36	-350	-905	31
-913	126	124	-557	31
-2733	208	447	-433	31
-392	-142	215	-29	31
3005	-370	12	231	31
3162	-96	-208	-201	31
2358	334	-94	-78	31
1487	501	250	345	31
266	268	305	93	31
393	21	153	371	31
173	-154	-8	297	31
-47	-337	-12	-313	31
-263	-277	42	-156	31
-913	-111	199	-350	31
-603	-49	252	-356	31
-69	106	224	414	31
137	300	-133	597	31
248	215	-698	-161	31
585	69	-548	-30	31
-42	94	-342	249	31
-155	-107	-161	79	31
9	-487	149	46	31
-235	-443	51	-68	31
-15	-37	167	59	31
-274	164	427	-75	31
-52	84	495	46	31
-32	24	615	549	31
-153	142	304	826	31
-104	227	-521	696	31
-245	150	-862	-791	31
-439	80	-601	-1522	31
-725	-94	-192	355	31
-1004	-293	-240	1061	31
-1247	-273	-393	-367	31
197	-183	254	-645	31
829	-56	591	-513	31
235	67	373	-651	31
415	86	246	-246	31
107	97	183	300	31
473	96	297	578	31
531	163	567	114	31
357	370	684	328	31
224	389	178	539	31
-5	182	-406	-154	31
274	24	-577	-261	31
85	-158	-475	-56	31
220	-378	-102	-28	31
65	-391	-74	-512	31
-45	-194	-365	-1068	31
-159	-79	-359	-300	31
-152	-76	-164	1357	31
421	26	-34	1145	31
-166	107	89	-188	31
-841	127	267	-102	31
-655	173	289	-232	31
-172	139	88	-9	31
392	86	-212	682	31
295	17	-276	488	31
-153	-22	292	142	31
231	-6	1020	-570	31
497	-46	1210	-853	31
-396	-57	884	-673	31
-861	-27	-97	-399	31
-538	27	-1163	650	31
-504	54	-1107	1317	31
-179	18	-719	935	31
67	24	-427	-54	31
-227	42	137	-534	31
-298	18	247	-111	31
-776	-37	8	-570	31
-83	-64	-147	-824	31
1232	-19	-167	-232	31
568	2	2	131	31
424	66	-56	390	31
816	206	-189	556	31
805	74	-40	255	31
636	-203	182	-267	31
560	-169	443	-715	31
398	31	459	-797	31
7	32	401	-543	31
90	-34	279	216	31
-129	6	-323	1131	31
-103	57	-659	757	31
-282	92	-569	314	31
-143	36	-398	-250	31
163	16	-136	-805	31
-231	66	141	-690	31
-153	92	265	-708	31
-298	99	276	171	31
-304	-32	260	913	31
107	-170	205	501	31
-168	-139	252	-137	31
-716	-184	219	419	31
-607	-73	-6	706	31
-880	311	-209	-150	31
-438	73	-24	-212	31
710	-363	207	9	31
283	-104	96	445	31
306	151	132	547	31
430	110	367	-211	31
317	38	536	-379	31
184	-15	597	121	31
-338	11	126	-90	31
-1075	-2	-631	-312	31
-1936	53	-808	-463	31
-951	111	-517	-443	31
861	62	-86	-216	31
1308	14	96	-346	31
-290	-104	261	-216	31
-1074	-169	464	-119	31
836	-130	427	300	31
1731	-55	392	455	31
653	25	249	372	31
350	77	-67	237	31
153	124	-475	-111	31
-222	89	-664	-283	31
-250	62	-775	-447	31
-1763	60	-815	270	31
-1293	42	-649	776	31
1865	31	-528	472	31
2112	-2	-303	174	31
809	-12	-27	-281	31
20	-12	161	-186	31
-363	1	236	-84	31
656	-7	350	-81	31
455	-11	320	-142	31
-119	-3	187	-304	31
32	10	152	146	31
-134	177	24	200	31
11	363	-33	8	31
-65	426	38	-96	31
-16	553	202	-275	31
-97	333	443	-348	31
-69	-350	528	-124	31
-61	-655	412	283	31
-522	-572	350	435	31
-920	-599	293	522	31
-691	-592	245	231	31
-533	-347	392	-550	31
-788	-102	273	-555	31
-6	-4	-141	-265	31
-66	16	-561	-141	31
42	81	-992	-14	31
784	160	-787	2	31
569	213	-162	937	31
680	210	260	509	31
-106	117	465	-195	31
-112	117	204	251	31
399	92	24	4	31
-57	59	-3	-69	31
-131	94	231	-227	31
-304	87	403	-231	31
69	71	-123	-350	31
285	19	-402	-795	31
157	2	-321	-603	31
52	45	-54	831	31
-297	47	39	1548	31
-345	25	18	427	31
-276	-51	56	278	31
9	-113	-175	35	31
191	-59	-195	-245	31
315	14	-234	-194	31
214	46	-377	-735	31
-365	47	-199	-468	31
-796	27	42	-30	31
-282	-1	80	-14	31
665	-73	250	-206	31
508	-24	271	-62	31
295	172	144	2	31
136	81	236	-179	31
100	-195	49	-433	31
60	-157	-25	-256	31
-518	33	-13	516	31
-154	126	-129	364	31
-96	117	22	-108	31
-170	17	24	-513	31
86	45	4	-823	31
-17	103	403	288	31
124	46	548	1386	31
6	2	215	1192	31
-100	1	51	1059	31
-150	14	-92	480	31
-832	24	-163	-399	31
-1250	129	-111	-277	31
-85	262	-363	-330	31
177	406	-284	-668	31
-154	265	-51	-715	31
1119	-214	170	-376	31
815	-443	540	349	31
-493	-437	139	805	31
-1082	-230	-273	265	31
21	15	-323	-474	31
1253	32	-508	20	31
788	78	-132	703	31
550	172	110	809	31
-611	219	-99	-455	31
-1132	-16	-61	-1372	31
-1207	-362	-6	-922	31
-671	-249	36	-984	31
-365	-79	92	-640	31
-242	-98	437	81	31
2460	-29	485	745	31
2071	-4	-194	504	31
1022	2	-506	119	31
1003	13	-389	335	31
-101	29	-107	57	31
136	54	65	-53	31
-131	9	77	-54	31
-97	-28	99	-6	31
61	-42	-2	197	31
-198	-1	-20	429	31
-182	58	32	192	31
-110	77	131	-67	31
230	87	132	67	31
-50	115	136	262	31
-427	116	269	533	31
-535	101	251	117	31
-1134	147	188	-290	31
-1044	92	182	-100	31
312	-29	-36	-337	31
398	-17	-199	-710	31
-395	75	-89	-607	31
-282	11	-121	-316	31
309	-109	6	369	31
654	-120	-81	662	31
401	-234	-355	-380	31
-17	-295	-176	-252	31
-74	22	-289	467	31
263	293	-358	327	31
96	31	-61	1111	31
-7	-199	81	1392	31
106	-101	228	796	31
-195	26	409	-240	31
-724	57	540	-1185	31
-1183	43	541	-851	31
69	96	496	-472	31
969	32	489	-107	31
274	-22	294	585	31
235	1	14	471	31
-79	63	-555	-424	31
-432	295	-846	-567	31
-684	334	-423	-57	31
-778	187	-387	-76	31
369	84	-307	-179	31
888	-166	-209	-14	31
616	-401	-414	-32	31
379	-335	-292	-27	31
109	-101	-195	-161	31
1	23	20	-209	31
-131	48	282	-297	31
-244	86	425	-304	31
-674	26	463	-96	31
-460	-62	437	205	31
392	-36	342	758	31
258	-31	262	712	31
-130	-66	458	131	31
22	-37	360	-302	31
106	-4	-76	-394	31
-208	17	-575	-277	31
-583	23	-779	-21	31
-545	12	-579	392	31
138	-15	-294	170	31
655	-44	-25	-47	31
514	-28	21	-220	31
442	81	34	-846	31
278	266	193	-773	31
145	150	358	-523	31
16	-111	327	465	31
-285	-20	57	1337	31
-252	41	-119	687	31
-57	84	-65	88	31
91	336	-32	45	31
-92	315	-100	370	31
-81	-86	112	511	31
142	-302	390	283	31
-93	-54	445	-254	31
-258	-42	284	-252	31
-287	-197	23	-248	31
-206	-30	9	-42	31
186	-51	24	576	31
354	-167	36	57	31
249	-146	-194	-240	31
159	-122	-325	-181	31
-6	-39	-190	-543	31
171	14	-229	-607	31
242	103	-37	-457	31
-379	179	-61	-239	31
-225	154	-87	149	31
97	127	186	224	31
-369	75	402	650	31
-62	-48	393	781	31
-342	-219	132	-48	31
-2189	-243	12	5	31
-2680	-118	-434	401	31
-543	54	-798	374	31
1489	190	-666	-555	31
2288	175	-272	-1109	31
1623	200	405	-143	31
398	325	605	292	31
815	283	320	-101	31
533	70	57	-416	31
269	-96	74	-279	31
557	-264	191	164	31
-76	-373	-52	665	31
-61	-192	-423	338	31
-42	-36	-450	47	31
-202	-30	-134	342	31
-181	37	180	103	31
-111	15	262	-15	31
44	4	14	-216	31
-440	27	-209	-302	31
-821	-46	-86	-339	31
-425	-26	135	-496	31
29	138	239	-249	31
525	146	274	-259	31
663	-122	417	-326	31
288	-148	441	-311	31
172	54	-34	177	31
-97	74	-588	1236	31
-66	46	-588	1006	31
-94	66	-294	26	31
-342	45	-4	44	31
-76	-7	217	-204	31
-131	4	390	-580	31
-198	19	591	-564	31
-215	23	495	335	31
-84	156	18	855	31
111	132	-382	-573	31
-81	-166	-560	-389	31
-137	-224	-559	154	31
-138	25	61	-154	31
94	107	683	439	31
172	3	352	943	31
36	-12	-99	1459	31
1	-1	-457	858	31
-117	12	-744	-450	31
-125	47	-245	-753	31
-262	86	83	-893	31
-372	116	94	-811	31
-187	73	232	21	31
76	0	136	-171	31
236	-106	121	-376	31
300	-155	32	2	31
60	-143	-77	-90	31
-41	-88	-142	181	31
265	7	-172	-114	31
174	-21	8	-96	31
79	-12	91	140	31
-29	120	230	152	31
-344	66	393	232	31
-277	-149	321	-22	31
111	-101	89	132	31
264	94	-87	100	31
106	121	-29	96	31
154	103	305	234	31
84	81	367	-167	31
-97	131	22	-550	31
-292	197	-49	-367	31
-137	139	-46	-72	31
189	65	-159	71	31
-152	-92	-290	102	31
-111	-339	-294	-6	31
-86	-318	-143	-85	31
-1	4	-67	92	31
468	137	-51	181	31
219	71	-56	-52	31
166	4	-73	-131	31
152	-195	-48	-107	31
84	-287	42	84	31
-31	-194	35	143	31
-182	-27	65	-90	31
-3	295	151	-124	31
-170	423	175	91	31
-195	192	258	-141	31
-537	-48	362	-550	31
-1473	-157	301	54	31
-1408	-241	-39	853	31
-228	-172	-292	1017	31
358	-7	-234	503	31
758	34	202	-86	31
1100	96	722	-186	31
710	119	426	51	31
441	66	-216	355	31
591	-24	-842	-288	31
791	77	-1074	-1024	31
453	418	-312	-918	31
73	363	-38	-537	31
-125	-74	-187	137	31
-77	-316	-61	566	31
76	-235	-217	459	31
-5	-98	-194	129	31
9	17	37	817	31
-19	27	105	1224	31
-12	31	133	-350	31
-25	66	171	-1016	31
-39	24	196	-663	31
27	190	215	-104	31
-26	160	180	576	31
-79	-156	167	563	31
-102	-135	217	-87	31
-107	163	145	-230	31
-121	252	-44	-148	31
-159	22	-59	-475	31
-196	-129	112	85	31
-210	-219	94	267	31
-192	-371	42	445	31
-116	-342	125	548	31
-59	-111	103	-474	31
-66	-18	-116	-1227	31
-33	-14	-214	-746	31
21	56	114	342	31
67	42	175	770	31
84	41	76	581	31
96	61	-2	456	31
1	87	-405	16	31
-22	91	-366	-605	31
52	70	-257	-592	31
-12	161	-142	-591	31
-83	119	215	-54	31
-176	-45	44	590	31
-145	23	-130	440	31
-42	141	51	-462	31
-58	134	297	-433	31
-2	75	295	139	31
28	-24	13	44	31
4	-47	-116	460	31
-4	-64	-377	247	31
33	-150	-559	29	31
102	-168	-325	96	31
48	-110	-71	-21	31
70	-37	161	-322	31
72	-28	328	-124	31
-67	-65	443	322	31
-55	-90	322	907	31
-119	-74	153	843	31
-393	7	39	-104	31
-215	72	-22	-285	31
261	140	290	-608	31
156	173	321	-497	31
-119	99	32	-327	31
-501	19	167	-4	31
-656	-10	259	237	31
253	10	-2	-67	31
758	21	-95	219	31
413	96	-179	-33	31
362	235	-148	-543	31
326	267	-37	-56	31
207	157	-49	255	31
123	12	-16	43	31
43	-116	-21	186	31
47	-270	26	166	31
-91	-244	93	186	31
-121	-37	192	-31	31
-74	-12	221	-612	31
-87	-24	192	-811	31
-52	145	-39	-99	31
-52	265	-598	715	31
-52	187	-884	961	31
-49	121	-498	915	31
4	100	279	-372	31
32	-203	554	-899	31
49	-369	183	-575	31
121	-229	-204	-503	31
124	-302	-286	110	31
80	-295	-300	394	31
33	132	-415	452	31
-1	361	-111	267	31
-76	29	274	-102	31
-168	-101	550	48	31
-142	128	416	72	31
-94	145	178	-198	31
-130	-48	328	-187	31
-186	-270	-64	-373	31
-136	-260	-382	-64	31
-56	36	-300	215	31
-7	132	-290	1	31
37	67	-49	184	31
36	90	289	-127	31
71	3	-15	-280	31
77	-56	-415	-146	31
9	-67	-157	-48	31
-29	-87	152	468	31
79	-37	530	708	31
81	-34	790	618	31
-108	-3	650	484	31
-68	-6	257	308	31
-51	-45	-396	-244	31
-106	21	-831	-672	31
-59	58	-753	-509	31
-68	83	47	-706	31
-18	124	821	-565	31
-6	81	592	-82	31
21	36	-46	511	31
86	71	-403	649	31
81	100	-950	-27	31
97	93	-1190	991	31
109	87	-279	689	31
117	52	473	-1033	31
37	55	763	-968	31
-11	53	1052	-455	31
23	-9	751	567	31
-4	-6	-51	994	31
-22	7	-695	382	31
-45	4	-925	-161	31
-47	11	-684	-431	31
-45	9	39	-138	31
-41	-12	508	-140	31
-5	-47	654	-283	31
23	-61	760	-127	31
87	-71	580	99	31
129	-61	-67	158	31
125	-29	-845	97	31
89	14	-912	565	31
31	57	-720	-219	31
22	67	-249	-789	31
-9	42	261	-333	31
-75	1	252	-431	31
-91	-28	398	-149	31
-86	-36	538	-125	31
-14	-19	412	668	31
14	-6	147	1071	31
-29	12	75	564	31
38	34	-41	-108	31
45	40	-71	-235	31
14	27	10	-47	31
52	12	74	-475	31
66	29	302	-360	31
92	19	173	-419	31
90	58	21	-492	31
61	156	-242	-476	31
37	229	-348	211	31
26	274	-134	788	31
12	103	-20	768	31
-12	-171	92	312	31
-31	-172	-77	-643	31
-57	-150	-52	-889	31
-73	-260	175	-1019	31
-53	-209	188	-321	31
-22	-265	-66	1213	31
-61	-254	-387	2306	31
-107	-57	-301	1108	31
-61	-199	-154	-216	31
49	-191	64	412	31
63	74	336	-360	31
36	231	204	-229	31
96	337	204	-18	31
61	139	435	-475	31
32	-55	576	-177	31
25	62	841	-464	31
7	85	611	-211	31
-17	-60	-370	-294	31
-66	-50	-1129	-651	31
-49	61	-1601	-1064	31
-87	-109	-1248	-959	31
-87	-302	129	229	31
-33	-179	89	1249	31
-51	9	-743	1344	31
-57	91	-244	1262	31
-39	132	441	354	31
-49	237	653	-136	31
-1	301	203	245	31
101	306	-261	-697	31
157	302	-153	-300	31
117	142	-69	-445	31
58	-30	373	-669	31
51	-183	483	-320	31
-44	-288	453	-542	31
-132	-39	648	-249	31
-137	232	442	-776	31
-65	117	496	-527	31
-37	28	403	227	31
-33	-107	-196	1730	31
36	-358	-239	1593	31
29	-283	80	-482	31
24	-106	-65	-604	31
39	-32	71	-196	31
78	-36	744	428	31
61	-36	914	-9	31
70	-2	-396	-425	31
109	3	-1573	321	31
78	-8	-2094	-400	31
87	-40	-2115	-575	31
40	-14	-1077	417	31
-28	12	-121	1145	31
-67	42	1514	713	31
-93	60	2114	92	31
-137	54	1045	273	31
-139	88	470	8	31
-126	106	365	486	31
-99	157	385	1211	31
78	162	95	651	31
146	73	400	-513	31
19	-15	-330	-1610	31
-87	-1	-2326	-1733	31
-56	19	-1801	-708	31
4	-22	863	-602	31
12	40	2386	-422	31
87	59	509	289	31
152	41	-1808	206	31
176	34	-1225	259	31
122	-24	-249	275	31
51	-86	455	45	31
-15	-101	822	51	31
-185	-22	722	176	31
-205	8	822	271	31
-141	4	640	425	31
-164	31	436	-294	31
-106	97	-184	-399	31
43	111	-367	391	31
116	20	-78	59	31
120	20	-332	-416	31
137	-72	-241	-957	31
112	-240	-302	-418	31
72	-240	-638	745	31
33	-242	-174	791	31
4	-191	-185	1168	31
30	21	-500	1378	31
46	167	-85	502	31
-63	102	394	-307	31
-137	79	723	-723	31
-76	112	1117	-1294	31
-76	63	1601	-1043	31
-31	36	877	-405	31
26	64	-708	259	31
0	232	-1510	587	31
27	352	-2083	507	31
72	324	-1694	650	31
142	174	-317	-913	31
209	-62	-325	-1500	31
206	-313	-484	-273	31
115	-478	701	309	31
0	-221	1880	998	31
-64	-179	2239	189	31
-116	-444	1117	-160	31
-193	-161	-532	1154	31
-230	124	-1115	819	31
-159	101	-924	653	31
-90	145	-275	756	31
-11	180	-54	227	31
46	203	138	-350	31
63	145	477	-913	31
39	97	126	-874	31
39	72	144	-663	31
126	1	407	-557	31
173	-41	683	-1133	31
163	-75	1328	-1253	31
78	-82	337	-275	31
102	-41	-1458	1128	31
70	114	-1845	1082	31
-46	291	-1044	393	31
-40	251	676	713	31
-71	74	965	211	31
-26	-108	390	77	31
-3	-322	15	-312	31
-7	-358	-654	-754	31
22	-106	-485	-464	31
-101	91	70	-117	31
-256	119	217	312	31
-239	152	215	97	31
-71	114	24	287	31
91	31	195	265	31
227	-17	796	381	31
176	-87	184	392	31
31	-98	-680	-307	31
-17	-49	-790	-177	31
-29	-37	-23	535	31
9	-93	788	260	31
11	-84	223	-124	31
-81	-8	-631	96	31
-220	11	-447	-508	31
-203	2	846	-1071	31
-107	-58	2017	-878	31
-35	-142	1942	-204	31
58	-162	17	681	31
91	-111	-2685	1200	31
133	-40	-2931	836	31
121	91	-897	-248	31
116	227	50	-1854	31
110	192	666	-621	31
134	89	573	2040	31
134	-29	332	2365	31
-36	-49	325	1099	31
-24	166	-552	-939	31
-96	303	-607	-765	31
-359	268	-348	-631	31
-427	197	548	-984	31
-397	68	1385	-948	31
-297	-68	1272	-832	31
-148	-140	442	721	31
159	-126	620	2186	31
412	-66	-293	965	31
410	28	-2694	-2143	31
365	86	-1546	-1825	31
380	65	-531	-670	31
397	29	-104	253	31
157	-29	737	858	31
101	-22	478	-329	31
78	-39	736	338	31
-94	-66	334	551	31
-97	-47	543	182	31
-121	-64	1062	13	31
-126	-39	997	-404	31
-215	-47	995	-665	31
-195	-82	279	-69	31
-96	-105	-812	1582	31
-131	-107	-704	1185	31
-79	-60	47	267	31
-47	-24	-1303	672	31
-64	28	-1809	145	31
-133	-6	-1325	-1074	31
-184	-72	-550	-194	31
-123	27	480	214	31
-72	91	971	-550	31
16	95	1988	-516	31
69	113	1873	-259	31
-21	89	1509	831	31
-9	72	11	-94	31
73	-7	-1327	-1419	31
72	-53	-1828	-795	31
117	-36	-2183	83	31
135	-46	-748	1338	31
129	-4	1443	1072	31
99	135	1539	156	31
56	187	-777	430	31
130	-24	-1055	49	31
124	-195	208	-934	31
93	-77	1283	-880	31
101	73	899	-444	31
3	187	-240	483	31
-72	219	-521	592	31
-27	47	-694	-372	31
-62	-71	-162	-543	31
-128	-122	244	-1241	31
-31	-263	357	-1900	31
-112	-280	-278	-483	31
-279	11	-81	1935	31
-247	148	1086	2229	31
-219	-71	530	753	31
-187	-240	129	-244	31
1	-130	274	400	31
146	368	-544	1457	31
188	554	-960	165	31
234	262	-607	-1018	31
201	64	443	-1209	31
281	-281	1144	-445	31
372	-489	-62	-109	31
280	-331	-26	-874	31
173	-166	1085	753	31
46	-142	-332	2877	31
-56	-172	-2163	2200	31
-106	-56	-1356	686	31
-221	81	-767	-246	31
-180	234	-722	-2318	31
-11	385	-119	-1618	31
-148	273	638	-810	31
-222	107	1350	-2010	31
-116	61	1163	-1011	31
-77	-69	1559	-1090	31
-76	-79	1575	-286	31
-24	-17	297	590	31
107	-12	-1865	2154	31
87	77	-2602	3120	31
121	86	-942	1058	31
146	54	-397	891	31
76	35	-222	-1333	31
117	25	500	-1637	31
147	22	296	-1024	31
51	9	591	-894	31
-124	27	979	781	31
-206	15	662	-36	31
-228	-16	332	-36	31
-222	-77	151	-488	31
-129	-115	336	-302	31
-16	-87	640	1068	31
42	20	1651	1635	31
71	104	1018	672	31
91	75	-1985	-1304	31
13	66	-2798	-2473	31
19	6	-1005	-2696	31
88	-39	122	-1146	31
123	-17	255	2410	31
234	-7	265	4000	31
152	6	71	1850	31
-117	11	868	-1014	31
-262	42	1177	-1020	31
-117	0	417	-631	31
9	-68	428	-954	31
-21	-74	353	-471	31
11	-11	-1170	485	31
61	36	-1923	-91	31
104	-10	427	442	31
41	15	1538	1223	31
54	34	487	1221	31
120	24	-378	298	31
-9	32	-704	-1046	31
-40	7	-652	-921	31
78	31	-841	-435	31
269	-2	-408	-587	31
302	-119	914	-1192	31
41	-205	2434	-840	31
-142	-162	2271	610	31
-197	1	1	2903	31
-168	128	-1449	1498	31
-119	183	-1401	-1507	31
-60	86	-1859	-1387	31
-8	-71	-1864	-1352	31
-65	-120	-553	1096	31
-26	-53	728	2105	31
109	185	-225	-72	31
74	260	-879	-978	31
-9	18	-87	-1070	31
39	-192	458	-183	31
-14	-125	1459	640	31
-92	96	946	-31	31
-132	56	436	-1050	31
-117	-112	648	-1019	31
-17	-127	576	-202	31
27	-21	457	1577	31
101	77	132	2163	31
53	42	-479	1231	31
-37	86	-1471	-126	31
-18	134	-1050	-1310	31
-32	62	-151	-833	31
17	56	-171	-350	31
-54	15	320	650	31
-111	-32	668	621	31
27	-50	461	-1078	31
-16	-59	626	-37	31
-69	-52	773	289	31
37	-66	1185	-667	31
127	17	912	-364	31
101	31	265	-718	31
-33	-16	-709	551	31
-48	22	-1763	1286	31
33	57	-1075	253	31
-34	101	-980	296	31
-69	51	-896	244	31
27	-2	28	-148	31
10	57	511	-119	31
50	13	500	546	31
77	-4	-225	-139	31
39	48	-630	-709	31
144	49	-157	44	31
36	19	116	-773	31
-152	-105	-118	-1398	31
-57	-147	999	-748	31
-22	-109	2265	777	31
62	-89	2103	1429	31
257	-49	1225	167	31
203	-42	-1024	-275	31
102	-31	-2808	1303	31
-3	55	-2319	1634	31
-83	177	-1551	-968	31
-96	131	-536	-1678	31
-148	-57	563	-147	31
-257	-76	639	-137	31
-259	-101	862	-191	31
-108	-162	1555	510	31
-56	7	2124	195	31
73	144	460	-289	31
102	167	-2187	-216	31
37	67	-1930	-91	31
210	-31	-215	222	31
247	-44	2165	359	31
172	-109	2558	407	31
187	-76	157	-80	31
69	-61	-882	-935	31
21	19	-801	-467	31
54	139	-869	-555	31
-52	110	-1401	-1527	31
-142	99	-704	-766	31
-204	127	31	1298	31
-171	249	-5	2822	31
-134	283	586	511	31
-108	49	405	-508	31
1	-94	479	699	31
-70	-217	480	-54	31
-127	-397	-86	500	31
3	-242	-1618	983	31
116	-1	-1438	353	31
139	-16	1135	-1130	31
101	-16	1659	-1042	31
49	9	1252	-350	31
-22	22	864	-205	31
10	54	482	86	31
77	-8	-15	246	31
-51	-29	-612	261	31
-143	-76	-632	-713	31
-147	-108	-693	-462	31
-153	7	-475	618	31
-69	72	-78	964	31
-56	82	69	-66	31
7	76	-503	-269	31
86	47	-891	809	31
47	51	-1124	-1001	31
35	71	-810	-1680	31
7	18	632	-85	31
-102	-102	1597	324	31
-171	-69	1877	707	31
-9	42	249	672	31
80	59	-1054	430	31
52	89	-624	-116	31
172	109	-315	-379	31
194	130	183	-645	31
100	49	782	-923	31
49	-34	1331	194	31
22	-4	1323	1344	31
-53	-47	294	1008	31
-163	-38	-786	360	31
-62	-34	-1050	-415	31
-31	-14	-1223	-1564	31
-49	-1	-747	-760	31
82	-93	367	735	31
40	-160	442	945	31
85	-57	-61	768	31
84	225	-904	350	31
-26	156	-771	-1362	31
0	-147	588	-2138	31
-86	-133	848	-1291	31
-129	39	147	659	31
-111	135	-417	2504	31
-86	212	-466	1015	31
-32	306	-339	211	31
9	241	131	-397	31
36	100	1333	-1147	31
11	14	2087	-255	31
21	-142	944	-339	31
47	-116	-1227	478	31
95	89	-1473	1026	31
133	-93	-232	610	31
101	-541	-538	4	31
49	-439	-343	-250	31
-60	146	715	66	31
-148	338	-169	-530	31
-121	204	-747	-508	31
-173	119	-247	-162	31
-152	-98	271	533	31
2	-398	412	372	31
74	-451	-77	-427	31
124	-175	-106	-26	31
24	-7	-86	-266	31
-106	-35	-106	-151	31
-77	36	161	503	31
55	81	367	17	31
134	97	541	-89	31
104	103	443	93	31
147	44	116	-25	31
200	23	-126	131	31
184	-4	-424	8	31
30	7	191	-40	31
-100	43	1373	-355	31
-77	7	628	-567	31
-73	-15	124	-457	31
-89	39	626	-192	31
-109	257	-362	156	31
-89	443	-1839	337	31
-28	262	-1774	217	31
37	11	-447	784	31
36	-125	-70	1281	31
74	-277	182	-105	31
137	-309	649	-301	31
94	-136	365	-410	31
123	67	-274	-459	31
104	67	-806	250	31
72	-11	-353	-132	31
52	6	305	29	31
-26	30	392	308	31
-21	17	327	196	31
-38	-2	55	-47	31
-47	-32	-115	67	31
-165	-64	342	7	31
-236	-38	831	-833	31
-81	31	1001	-1102	31
-4	52	889	-598	31
9	-16	438	-79	31
34	20	51	88	31
41	130	-643	1440	31
41	244	-1607	2515	31
84	410	-1223	92	31
99	293	-378	-723	31
107	46	-333	-482	31
96	-119	207	-1250	31
-21	-323	699	-318	31
-107	-359	210	-270	31
-151	-156	-371	9	31
-111	-36	-365	-473	31
-87	-119	180	-500	31
-76	-201	482	445	31
-41	-142	869	234	31
-42	227	994	196	31
4	332	428	633	31
12	-104	-115	2016	31
49	-237	-1082	1254	31
71	102	-952	-939	31
107	353	-201	-1079	31
170	415	-663	-63	31
124	411	-906	79	31
51	75	-241	-518	31
-17	-302	662	-739	31
-28	-312	437	-570	31
-27	-222	17	71	31
-46	-94	164	739	31
-67	113	306	927	31
-97	202	680	424	31
-69	170	358	-364	31
5	150	-218	-434	31
18	10	-34	-261	31
-16	-299	94	-153	31
32	-370	-82	-52	31
66	-211	61	-140	31
56	-263	-62	-169	31
26	-311	-264	-242	31
21	-75	6	-237	31
100	51	417	-37	31
79	43	345	282	31
-14	56	217	185	31
-78	32	257	-179	31
-246	51	130	-277	31
-573	42	113	-477	31
-1024	51	-12	-345	31
-1379	64	64	339	31
-836	53	283	670	31
2	57	481	696	31
-235	38	644	-133	31
-214	59	180	-125	31
760	82	-855	1245	31
1277	149	-1779	900	31
1442	250	-1769	-181	31
1258	375	-707	-127	31
791	426	-46	360	31
555	205	-4	-345	31
124	66	181	-501	31
-393	63	130	-317	31
-502	-223	191	-532	31
-151	-589	332	-170	31
59	-528	390	-239	31
152	-119	475	-136	31
289	42	387	-276	31
317	0	430	-311	31
115	-35	469	52	31
-96	-24	528	398	31
-87	24	367	297	31
-231	-20	31	-269	31
-76	-34	-156	-270	31
62	-56	-488	627	31
-80	-12	-563	1158	31
-396	52	-659	557	31
-1530	64	-734	482	31
-2161	119	-274	-141	31
-1661	167	-119	-516	31
-1561	295	-14	-439	31
-1517	319	272	-534	31
458	365	175	-182	31
3264	427	141	-185	31
3041	-50	186	78	31
1358	-626	297	-57	31
901	-669	570	-299	31
600	-132	590	-159	31
576	343	285	89	31
626	193	-133	25	31
378	-239	-333	-79	31
163	-485	-162	265	31
42	-342	21	202	31
-22	-175	33	22	31
-78	25	-13	-12	31
-137	82	-101	-65	31
-174	5	-85	-137	31
-262	168	27	-132	31
-463	259	315	-122	31
-626	399	567	-27	31
-746	266	350	167	31
-568	-109	-80	692	31
-214	-284	-397	943	31
139	-415	-464	208	31
176	-240	-383	-186	31
14	27	-297	-383	31
-32	44	-270	-465	31
-282	48	-277	-502	31
-131	107	-133	-480	31
106	136	9	-22	31
119	268	111	39	31
152	305	223	61	31
111	142	215	-52	31
25	14	251	-292	31
-143	-131	378	-262	31
-84	-249	305	226	31
-104	-229	31	550	31
-97	-3	-151	211	31
-39	132	-108	16	31
-107	67	156	-435	31
-82	38	159	-451	31
-46	41	19	-165	31
-59	4	124	-4	31
-273	-171	101	672	31
-327	-174	-133	795	31
-271	-2	-669	-19	31
-316	52	-924	-964	31
-14	32	199	-1045	31
197	7	1397	187	31
61	29	724	2232	31
115	52	-822	2241	31
184	99	-1484	-101	31
277	128	-793	-1428	31
134	114	37	-1301	31
-195	79	467	103	31
-27	23	879	771	31
-29	-14	821	-243	31
-15	96	370	-325	31
32	127	-71	-160	31
-141	-134	-265	45	31
24	-220	-136	379	31
77	-17	14	395	31
-64	162	23	527	31
-347	133	227	328	31
-270	10	88	79	31
-246	-22	-550	45	31
-779	-17	-486	-552	31
-1169	-27	-354	-1257	31
-1116	-85	-741	-435	31
120	-117	-328	-49	31
1162	-116	114	-37	31
1295	-6	89	67	31
1366	195	245	-495	31
1177	44	403	-511	31
844	-208	556	-260	31
228	-67	433	241	31
-572	112	571	235	31
-465	76	693	238	31
479	14	274	714	31
344	-16	-200	794	31
-574	-11	-571	67	31
-1124	67	-372	-977	31
-344	111	276	-1032	31
613	81	462	-349	31
276	86	-119	726	31
408	14	-702	1601	31
630	-157	-822	703	31
468	-150	-487	-337	31
346	42	26	46	31
27	345	117	-8	31
-76	482	162	-71	31
-100	291	215	-281	31
-348	71	123	-423	31
-773	-357	165	-372	31
-925	-755	109	-607	31
-270	-654	52	-196	31
379	-298	122	357	31
402	-79	61	327	31
349	14	-24	41	31
182	138	33	-136	31
-197	161	1	558	31
-416	260	-53	1595	31
-237	342	19	868	31
269	184	42	243	31
264	13	-184	-211	31
-258	-119	-370	-1172	31
-671	-289	-177	-973	31
-845	-263	52	-695	31
-212	14	202	-423	31
274	146	220	-139	31
-101	337	78	-147	31
-242	555	17	-1	31
123	427	-80	-2	31
618	206	-46	72	31
630	-354	100	57	31
205	-954	116	-35	31
-19	-697	147	30	31
-200	-95	286	166	31
-294	30	270	166	31
-796	120	153	87	31
-1685	204	224	79	31
-1890	-167	106	48	31
-1748	-275	-99	17	31
-664	24	-21	-96	31
2120	205	187	-26	31
3150	173	170	235	31
2108	97	19	653	31
1757	41	5	512	31
873	1	66	-326	31
-48	12	185	-485	31
-77	10	-460	-60	31
453	106	-1025	706	31
354	124	-1045	649	31
-745	91	-930	-207	31
-1761	164	-10	-728	31
-1345	228	363	-830	31
591	192	350	-259	31
1091	30	598	-43	31
829	-34	543	452	31
503	-114	368	73	31
30	-202	-66	-820	31
156	-127	-287	-430	31
79	-37	-229	57	31
133	11	-264	585	31
4	9	-56	230	31
-145	-25	79	308	31
-179	-26	-96	1170	31
-266	2	-72	993	31
-318	-5	70	455	31
-492	21	123	-108	31
-517	76	175	-660	31
-422	64	-17	-1269	31
-142	34	-180	45	31
-193	29	-74	1284	31
-734	17	116	309	31
-856	16	363	284	31
-680	40	469	-359	31
-928	46	570	-1144	31
-412	38	241	-712	31
785	6	-365	-501	31
917	19	-616	498	31
818	41	-904	598	31
990	22	-678	-325	31
616	4	225	-346	31
282	-33	558	-167	31
-11	-57	389	-216	31
-327	-86	463	-151	31
-343	-99	543	-122	31
-1003	-71	806	71	31
-1367	-56	706	332	31
-498	-21	85	416	31
-206	57	-772	361	31
-137	91	-1426	-285	31
1075	78	-733	-444	31
666	94	-219	-252	31
-670	71	-291	-763	31
-829	43	-169	-629	31
-2199	10	-54	-57	31
-3412	-46	172	653	31
-1949	116	290	919	31
1813	238	442	308	31
3821	-42	327	275	31
2809	-254	229	120	31
2168	-142	-26	-154	31
532	-59	-258	-559	31
182	82	352	-475	31
1279	407	541	631	31
537	356	98	683	31
903	-2	-418	340	31
580	-26	-573	157	31
-300	-92	-345	190	31
218	-587	-185	57	31
155	-658	237	101	31
-54	-233	297	2	31
-161	-57	119	-783	31
-344	66	378	-615	31
-320	165	560	-96	31
-38	131	640	954	31
-176	62	340	949	31
-245	27	-400	126	31
-222	147	-921	94	31
-979	285	-949	216	31
-2063	159	-457	-250	31
-2355	-114	-35	-1366	31
-222	-220	386	-988	31
1154	-312	784	-875	31
515	-267	870	-429	31
-705	-24	857	622	31
-1960	155	201	708	31
542	323	-635	1352	31
2544	383	-1100	654	31
725	235	-1092	-372	31
270	155	-165	-264	31
729	160	315	191	31
305	-55	51	527	31
118	-292	-7	-211	31
106	-197	-75	-880	31
-102	-54	131	-1194	31
-158	-142	418	-861	31
-90	-145	534	280	31
-81	22	540	1339	31
-96	31	-49	1419	31
-20	-246	-458	451	31
-114	-296	-343	-650	31
-1289	64	-637	-423	31
-2681	147	-393	80	31
-918	66	247	-513	31
1403	70	331	-229	31
196	21	255	58	31
189	66	-48	-369	31
629	72	82	-204	31
-736	80	131	367	31
-408	81	-312	-97	31
1127	67	-184	-56	31
1594	81	180	244	31
774	42	485	-194	31
24	39	561	146	31
-1633	28	322	-33	31
-2463	49	81	-148	31
141	46	-77	-292	31
2194	7	31	-310	31
1445	-9	64	-540	31
754	-29	-84	-908	31
503	-25	-356	435	31
567	-23	-688	1545	31
964	16	-659	952	31
425	16	-244	304	31
277	-14	101	32	31
-55	19	114	-673	31
-187	22	144	-819	31
-133	-25	-31	-341	31
-655	-15	-146	837	31
-217	37	144	1585	31
-16	60	243	338	31
-282	42	520	-368	31
-546	4	799	-64	31
-337	-47	496	48	31
228	-98	-223	-76	31
-170	-71	-686	-295	31
-547	-25	-520	351	31
-61	12	-96	597	31
88	76	267	137	31
-288	121	-74	-613	31
-560	115	-337	-908	31
-201	54	-75	-227	31
475	-26	-156	-91	31
456	-72	-67	-195	31
256	-50	9	-445	31
-227	-5	-16	-229	31
-554	-26	115	-207	31
-828	-84	245	-39	31
-1231	-61	536	422	31
90	-27	357	-2	31
974	-26	-172	116	31
453	18	-445	338	31
536	61	-570	783	31
129	54	-197	244	31
-320	-32	379	-101	31
-751	-57	366	107	31
-1511	-14	258	-420	31
-1701	-24	198	13	31
-940	-33	32	-167	31
1077	-47	-61	-98	31
1147	-14	1	65	31
491	34	290	12	31
1328	9	291	118	31
847	-55	-82	-240	31
487	28	-511	-480	31
319	220	-592	-795	31
-203	136	-146	-790	31
219	-39	86	-957	31
132	117	135	-75	31
-655	256	200	1141	31
-478	-86	160	1682	31
509	-423	140	1443	31
344	-263	288	190	31
-69	-48	556	164	31
240	-42	215	141	31
206	59	-220	-695	31
14	115	-511	-1008	31
-129	72	-540	-741	31
10	94	-107	440	31
19	97	122	1233	31
-281	179	100	545	31
-267	257	-450	478	31
-302	161	-664	15	31
-255	-64	-347	-508	31
132	-173	52	-424	31
345	-305	460	-534	31
-77	-501	95	343	31
-310	-232	-255	-62	31
66	163	81	-939	31
202	230	455	-385	31
-7	169	580	210	31
-30	66	319	399	31
91	29	-82	178	31
-182	1	-409	1	31
-282	-44	-402	88	31
-107	-40	-169	-41	31
-24	-32	-45	-191	31
28	29	221	-371	31
-62	59	251	-392	31
-56	79	244	-324	31
-203	116	269	79	31
-362	80	244	647	31
118	52	172	117	31
682	105	-214	-587	31
143	123	-270	-600	31
-143	14	-254	-83	31
-31	-29	-98	363	31
-1529	-86	299	1015	31
-1565	-165	310	1856	31
441	-55	80	1170	31
899	52	-197	86	31
700	24	-292	-695	31
718	-72	-239	-988	31
199	-194	-182	-480	31
15	-237	-99	-668	31
44	-142	36	-233	31
55	-17	72	62	31
171	46	109	-12	31
-21	113	302	155	31
58	117	222	-60	31
213	7	67	-41	31
127	-6	103	-272	31
-74	62	17	-73	31
-39	78	-57	139	31
-38	104	-47	237	31
-420	86	-52	336	31
-717	62	86	-58	31
-368	31	250	-117	31
443	-6	215	-67	31
407	71	296	-172	31
229	207	267	-95	31
161	301	-151	-237	31
-77	254	-232	-42	31
-9	-12	-231	-56	31
-14	-480	-114	-588	31
-118	-640	343	384	31
-673	-242	348	1382	31
-1111	59	139	736	31
-740	37	-34	50	31
-316	24	-330	-59	31
-217	6	-615	-488	31
-843	4	-1057	-61	31
-744	94	-897	57	31
1500	134	54	-807	31
1990	66	400	-465	31
1243	6	340	-429	31
1210	3	-12	-308	31
353	-66	-471	625	31
251	-46	-327	783	31
116	30	-180	899	31
59	-23	61	757	31
247	-61	295	-603	31
-53	-19	407	-605	31
34	30	468	-27	31
28	54	254	70	31
-199	75	84	339	31
-237	49	-122	20	31
1	47	-208	-477	31
-557	59	245	-736	31
-1585	39	1036	218	31
-1589	28	1317	1148	31
364	-17	620	1773	31
1219	-44	-365	593	31
196	-27	-971	-1792	31
462	57	-583	-1237	31
-330	-11	-205	-637	31
-1032	-185	-388	-401	31
-171	-99	-328	-106	31
733	41	-477	-475	31
1117	97	-116	-260	31
458	111	214	-125	31
156	56	192	416	31
-210	82	264	467	31
-194	240	84	181	31
611	330	777	228	31
352	217	927	119	31
-723	68	54	303	31
-545	-111	-640	229	31
-290	-330	-1203	-286	31
-398	-364	-1034	-339	31
37	-220	-152	-155	31
94	-87	384	324	31
245	50	210	495	31
114	96	277	-164	31
-52	36	355	40	31
-72	101	229	-141	31
-191	194	140	-128	31
74	149	-37	86	31
314	-157	-230	-104	31
6	-461	-387	144	31
-440	-385	-315	-9	31
-153	-160	24	44	31
57	-1	378	22	31
219	41	299	86	31
-176	32	201	54	31
-1439	88	205	-465	31
-1883	83	117	-512	31
-87	68	76	136	31
1907	55	74	268	31
1245	40	86	226	31
843	49	110	211	31
565	22	207	-163	31
34	33	24	136	31
315	44	-233	401	31
-27	49	-341	508	31
-110	124	-388	212	31
-642	296	-97	-260	31
-1322	355	156	-216	31
-844	151	148	-117	31
161	-59	157	29	31
668	-328	124	-222	31
687	-542	121	-613	31
690	-271	202	-90	31
357	66	265	723	31
77	33	512	783	31
57	39	679	928	31
1	106	-9	815	31
-97	57	-892	129	31
120	18	-1179	-352	31
74	81	-1031	-592	31
-205	253	-562	-881	31
-87	125	-244	-1098	31
-116	-204	-130	-918	31
-55	-182	-122	-533	31
-2	17	110	389	31
-229	53	478	211	31
-352	-8	508	-279	31
-287	-16	458	-36	31
70	4	230	2	31
155	14	84	347	31
67	-2	70	197	31
26	-72	36	182	31
-57	-82	244	304	31
17	-46	320	358	31
2	-12	164	529	31
-139	94	-17	326	31
-398	170	-265	-146	31
-362	159	-317	-678	31
106	72	-99	-896	31
114	-4	27	-423	31
-226	0	79	455	31
-731	-38	92	404	31
-635	-8	199	-445	31
950	36	149	-67	31
1180	-1	-147	194	31
420	49	-37	-225	31
327	114	252	828	31
-97	115	607	683	31
146	54	440	241	31
72	-11	71	1032	31
-116	-113	9	1232	31
47	-229	-526	585	31
-280	-194	-644	322	31
-581	-82	-610	-324	31
-780	100	-1005	-1697	31
195	304	-708	-1209	31
822	405	-227	-678	31
-227	268	-175	-523	31
-691	22	66	-308	31
-265	-180	434	-164	31
245	-431	575	-84	31
588	-480	479	-120	31
209	-274	333	39	31
-9	-62	244	-97	31
130	49	149	-74	31
78	184	59	48	31
82	249	27	199	31
42	182	63	94	31
14	255	71	93	31
-112	-37	14	62	31
-69	-617	33	13	31
261	-449	120	157	31
170	89	111	243	31
-276	124	49	142	31
-15	15	6	-320	31
267	41	36	-500	31
-48	61	117	-458	31
82	84	101	135	31
-42	46	76	878	31
-791	46	44	703	31
-1179	32	278	535	31
-100	1	252	480	31
245	38	-291	-416	31
-1074	16	-230	-290	31
-507	51	-475	335	31
297	194	-769	491	31
668	278	-403	658	31
1338	324	-321	-199	31
867	137	-8	-680	31
459	-430	168	-705	31
360	-629	161	-171	31
320	-157	285	850	31
159	227	260	439	31
-69	200	227	-252	31
-98	94	157	31	31
-132	66	312	-204	31
-124	42	156	-267	31
-136	3	-66	-145	31
-29	-11	-109	-300	31
17	14	-280	-219	31
-14	84	-138	-255	31
40	142	-8	-63	31
-22	87	9	-182	31
-44	-24	157	-324	31
57	-75	397	-613	31
-29	-125	692	-678	31
-38	-137	799	-8	31
59	-97	411	409	31
-402	-69	-284	520	31
-1079	16	-823	778	31
-699	44	-897	1322	31
234	26	-631	847	31
96	69	-420	-40	31
-588	131	-255	-17	31
-648	169	-162	-231	31
-390	77	-87	-197	31
41	-44	206	-397	31
714	-139	627	-200	31
639	-162	702	670	31
838	-39	158	457	31
1241	39	-355	-129	31
449	3	-705	-449	31
-87	-37	-695	-632	31
-215	-33	-47	-678	31
259	-71	193	-97	31
423	-62	195	147	31
17	31	307	578	31
110	129	297	500	31
-123	243	282	-231	31
-210	282	83	-111	31
-287	198	33	-442	31
-237	-169	53	-217	31
-109	-484	-19	-185	31
-319	-357	-17	-371	31
-231	-90	-35	-135	31
-187	21	122	-533	31
-108	14	360	-1076	31
112	41	509	-320	31
185	38	542	857	31
159	42	202	620	31
129	64	-249	664	31
58	57	-366	-188	31
-65	51	-294	-406	31
-9	30	-147	949	31
-15	32	-103	1035	31
-662	33	-52	379	31
-1063	14	496	77	31
-206	-21	716	82	31
268	-54	163	-205	31
173	-46	-385	9	31
329	-12	-989	-209	31
255	5	-1163	-199	31
353	76	-553	-467	31
122	206	-178	-282	31
-189	21	-26	563	31
-36	-224	70	-9	31
-6	-41	66	115	31
92	98	146	-106	31
121	154	220	-197	31
13	288	238	-45	31
-154	187	111	-58	31
-480	7	114	235	31
-623	-99	113	-6	31
-477	-119	62	-32	31
-175	-215	136	-176	31
146	-364	238	-49	31
576	-156	195	66	31
546	286	17	4	31
-1	481	12	-87	31
182	302	87	-160	31
527	37	183	-67	31
320	-272	111	-83	31
76	-477	-42	73	31
177	-320	-15	-66	31
270	-72	53	-111	31
59	9	172	-117	31
-16	37	247	-166	31
-79	81	109	-9	31
-140	101	-138	312	31
-100	97	-345	525	31
-14	51	-483	70	31
9	-43	-220	-121	31
-22	-154	378	150	31
-4	-145	523	531	31
-12	-59	107	342	31
71	9	-175	-404	31
71	77	-293	-717	31
69	141	-235	-454	31
82	142	-11	457	31
-24	83	-197	897	31
-299	81	-391	-147	31
-809	66	-257	-984	31
-1319	35	-175	-141	31
-1109	-8	64	775	31
530	37	272	780	31
1206	221	262	-176	31
123	305	146	-247	31
-330	104	-64	216	31
461	-326	-89	-62	31
976	-457	47	31	31
437	-223	155	-382	31
515	-2	283	-204	31
321	56	269	-209	31
2	4	99	-439	31
69	94	67	95	31
-166	97	9	-32	31
-52	22	82	-314	31
-124	77	137	105	31
-141	74	69	605	31
-237	36	82	102	31
-261	81	-23	-322	31
-326	198	-146	-275	31
-765	137	-152	-52	31
-683	30	-204	405	31
63	-53	-272	841	31
353	-197	-37	888	31
284	-194	132	57	31
380	-154	82	-365	31
-95	-64	171	-837	31
-28	-3	130	-1207	31
-213	-26	-246	-480	31
-1054	-13	-707	257	31
-475	-8	-862	688	31
642	51	-420	696	31
869	79	176	233	31
440	64	566	-641	31
138	51	706	-221	31
31	9	472	803	31
-44	1	126	859	31
-325	-14	-76	385	31
-898	-19	-164	-457	31
-1337	25	-29	-512	31
-647	50	140	-356	31
1005	51	-105	-295	31
1307	6	-318	-102	31
1067	-33	-117	190	31
819	-4	41	0	31
67	-4	239	-315	31
-22	-35	404	186	31
-290	-40	342	150	31
-650	-31	287	-257	31
-156	-20	163	-181	31
701	-2	97	-86	31
661	3	-157	-44	31
121	-49	-387	43	31
-369	-57	-367	-15	31
-679	-38	-460	-138	31
51	-50	-361	-516	31
323	2	-141	-746	31
222	33	51	-235	31
161	46	197	718	31
-22	16	163	1459	31
179	-37	157	752	31
-210	190	274	-369	31
-581	307	223	-82	31
-89	-77	17	124	31
354	-333	-102	209	31
71	-116	-315	186	31
-139	165	-264	-414	31
-261	153	199	-163	31
-111	19	224	-31	31
125	-12	-26	-99	31
-231	-49	-83	-88	31
-227	-47	9	-264	31
-122	-11	199	-208	31
-102	-3	234	-36	31
-634	7	90	202	31
-934	14	-36	322	31
520	29	-222	339	31
1222	14	-326	-1	31
646	13	-12	184	31
-57	31	357	22	31
-1082	31	442	-366	31
-375	3	455	-81	31
704	-56	429	59	31
487	-67	11	248	31
467	-34	-455	44	31
124	-3	-739	86	31
-6	11	-799	-393	31
-141	34	-29	-846	31
-543	57	512	-202	31
-671	32	280	698	31
-294	92	6	1633	31
527	249	-372	894	31
427	185	-425	-487	31
369	1	-264	-871	31
304	60	-271	-781	31
-9	121	-105	-129	31
-35	-46	46	5	31
-348	-230	245	-1	31
-247	-278	392	277	31
-183	-144	212	194	31
-134	52	142	-59	31
114	14	97	-111	31
-1	-194	12	44	31
85	-220	-36	-148	31
94	-55	-51	-62	31
15	57	76	-142	31
-175	35	252	-258	31
-277	36	334	-154	31
223	4	260	-211	31
352	-2	277	11	31
-91	37	214	192	31
-402	21	-24	32	31
-209	66	-145	-134	31
353	42	-269	-132	31
485	-3	-270	-402	31
-138	52	-106	-409	31
-563	142	67	-134	31
101	140	85	583	31
502	46	-244	1445	31
346	121	-243	322	31
339	49	-87	-734	31
2	-322	-132	7	31
-127	-352	203	-7	31
-59	-56	340	662	31
-76	89	-55	1177	31
-23	81	-162	-448	31
10	48	316	-601	31
33	34	107	-323	31
21	35	-420	-196	31
11	33	-393	662	31
-11	47	-571	242	31
24	51	-210	-327	31
21	45	257	-443	31
-34	39	156	-173	31
-95	26	59	71	31
-281	40	-3	3	31
-306	86	65	41	31
-142	99	32	197	31
-132	44	-56	487	31
-111	-28	18	457	31
-43	-119	224	-180	31
-38	-157	297	-769	31
61	-97	71	-1011	31
114	-27	-2	-835	31
59	1	61	397	31
-600	-18	134	399	31
-1133	-21	383	-89	31
-117	9	419	264	31
960	36	224	-64	31
911	44	12	-94	31
463	52	-244	-162	31
-40	67	-287	-280	31
-597	64	-100	-132	31
-393	24	87	241	31
290	14	53	431	31
279	-6	-169	315	31
166	-66	-119	360	31
-302	87	279	52	31
-1190	206	393	-179	31
-522	-55	81	339	31
500	-232	-138	1017	31
-217	-42	-337	72	31
490	91	-571	-408	31
1589	52	-480	83	31
766	46	-83	-196	31
668	52	80	-152	31
364	70	11	-22	31
-56	-63	-117	-39	31
-17	-85	-266	-197	31
-239	4	-62	-203	31
-234	-125	149	49	31
-323	-32	134	29	31
-151	69	167	-114	31
11	22	239	-255	31
64	32	251	-284	31
-130	15	140	-142	31
-527	49	87	326	31
-393	92	-156	343	31
-69	225	-107	-131	31
177	329	512	-31	31
261	196	371	-151	31
285	-104	-124	159	31
-147	-388	-442	1007	31
-715	-460	-671	948	31
-355	-301	-590	-90	31
121	62	-595	-1424	31
274	232	-383	-851	31
218	79	16	156	31
16	17	448	259	31
-29	-61	936	503	31
-111	-253	1070	70	31
-92	-249	663	-76	31
4	-7	272	-132	31
65	298	118	-121	31
81	342	-117	98	31
116	185	-362	-37	31
212	147	-595	-3	31
108	29	-585	-240	31
-49	-149	-365	-529	31
-40	-106	62	-379	31
-99	-82	320	420	31
-128	-478	222	720	31
-93	-661	182	-26	31
-149	-210	377	-1058	31
-107	117	733	-1398	31
-81	157	664	147	31
-68	129	235	2171	31
-9	112	-448	1358	31
20	171	-899	-32	31
36	169	-907	723	31
44	131	-1201	-65	31
78	97	-1035	-352	31
70	79	175	-171	31
56	89	904	-602	31
57	87	856	-300	31
47	232	1185	-731	31
-2	269	1245	-200	31
-69	-126	537	290	31
-71	-312	-171	1116	31
-51	-52	-736	1507	31
-58	5	-1028	-139	31
-122	-112	-548	-956	31
-145	-94	-232	-985	31
-47	-41	-789	-1094	31
55	-16	-947	260	31
77	-16	-377	1108	31
22	-6	357	70	31
49	-1	844	-405	31
94	65	662	-364	31
50	125	106	-81	31
37	89	-534	29	31
33	96	-450	117	31
36	52	106	11	31
-7	-48	220	-267	31
-54	-16	222	-76	31
-80	27	235	50	31
-109	-17	270	-96	31
-81	-55	209	-269	31
-64	-37	125	-294	31
-19	22	95	-246	31
77	26	216	224	31
94	21	370	961	31
57	22	505	1035	31
102	-5	460	-62	31
129	-13	-313	-341	31
139	-15	-905	-66	31
97	14	-944	46	31
-34	31	-718	513	31
-21	41	-6	-11	31
44	41	449	-663	31
-216	36	325	-466	31
-660	147	272	92	31
-613	209	215	97	31
-19	86	66	-256	31
435	48	-5	-470	31
543	-50	6	-7	31
283	-406	71	598	31
-262	-362	31	313	31
-302	4	1	281	31
-101	57	6	149	31
-436	21	49	-22	31
-841	19	81	-30	31
-223	-4	46	-71	31
209	54	54	-45	31
-89	120	28	-207	31
686	194	29	-202	31
1277	259	26	-268	31
1207	4	13	-61	31
784	-446	119	-23	31
69	-461	263	-368	31
149	-243	267	42	31
69	-69	323	723	31
-133	154	136	657	31
-41	183	-221	67	31
4	128	-87	-196	31
52	73	-322	-144	31
29	-2	-748	-27	31
65	8	-448	242	31
11	32	212	330	31
-11	104	-76	-80	31
-20	-24	-571	-799	31
-118	-217	-105	-244	31
-164	23	-323	576	31
-272	362	-654	394	31
-290	353	-709	-2	31
-232	262	-929	-530	31
-254	246	-255	-321	31
-185	95	819	-325	31
-26	163	1385	-282	31
36	142	2106	-104	31
4	-392	2397	-367	31
22	-623	1235	-590	31
84	-518	-360	493	31
96	-368	-2745	2130	31
-3	-131	-4000	550	31
-66	-69	-2080	-696	31
1	-36	94	-152	31
14	82	1012	-382	31
-2	157	1736	-81	31
-77	158	1864	89	31
-156	99	1404	329	31
-176	54	1318	505	31
-176	12	551	746	31
-93	29	-341	141	31
-111	36	-606	-692	31
-130	-13	-309	210	31
-75	-8	626	85	31
-33	11	762	-234	31
51	24	-120	-335	31
82	43	-1105	-824	31
74	77	-1481	-493	31
80	92	-616	-11	31
82	94	588	568	31
54	90	663	366	31
22	134	526	-393	31
-25	224	7	-576	31
-47	151	-1017	77	31
-39	99	-1177	535	31
-125	-7	-446	-107	31
-111	-253	199	-198	31
-16	-129	-64	519	31
-19	-24	-288	792	31
-12	-365	-753	2	31
26	-461	-295	-1141	31
54	-106	1242	-1390	31
102	159	1036	-1118	31
131	153	851	-716	31
120	104	414	-28	31
72	61	-181	1487	31
-17	-57	-7	1896	31
7	-121	-936	790	31
14	-36	-951	371	31
-7	77	-358	-245	31
-6	83	-120	-143	31
-24	119	168	182	31
31	260	177	-237	31
-36	262	371	-352	31
-87	214	326	-454	31
-81	-61	370	-389	31
-99	-536	390	-107	31
-55	-406	335	-29	31
5	-48	383	-437	31
86	-122	100	42	31
114	-96	-341	671	31
114	62	-435	905	31
88	86	-328	1039	31
75	135	-187	285	31
73	124	-97	202	31
2	71	-268	118	31
-26	-2	-432	-521	31
23	-143	-175	-667	31
-22	-185	727	-682	31
-86	-101	879	-592	31
-54	68	4	-98	31
-63	242	-489	473	31
-71	190	260	573	31
-86	78	576	364	31
-43	65	11	-863	31
114	2	247	-765	31
222	38	651	135	31
217	126	1167	612	31
46	136	1079	1237	31
-105	139	-19	431	31
-62	112	-2069	455	31
16	24	-2339	11	31
-24	-72	-957	-955	31
-97	-80	-526	-695	31
-17	-81	19	-585	31
-14	-81	-78	-539	31
-58	-49	104	-645	31
-29	11	17	-597	31
-7	235	267	-445	31
42	551	918	-297	31
29	479	700	305	31
2	114	1039	1779	31
-54	-100	680	2346	31
-47	-549	-205	1305	31
75	-832	-723	367	31
202	-378	-35	-899	31
230	-40	-678	-2172	31
102	-27	-1686	-1587	31
44	79	-156	107	31
-24	154	-612	290	31
-98	96	-236	-164	31
-77	87	1301	-294	31
-6	216	1341	-558	31
58	-18	1847	356	31
-80	-370	781	1335	31
-75	-233	-202	1382	31
43	38	17	176	31
-60	251	-143	-600	31
-30	403	-1152	-156	31
132	282	-1531	13	31
158	-51	-551	192	31
129	-318	12	-554	31
66	-498	162	-480	31
-60	-432	109	-310	31
-184	-77	718	-667	31
-245	161	902	-274	31
-291	194	407	7	31
-161	237	-1213	512	31
44	253	-1457	899	31
79	-12	-294	999	31
72	-287	-219	495	31
22	-166	1009	348	31
0	84	2043	718	31
17	71	2122	327	31
-31	9	282	-22	31
-101	66	-1900	122	31
-111	80	-2393	-324	31
-44	138	-1101	-622	31
84	195	-379	-295	31
125	148	-699	-956	31
62	44	135	-1428	31
30	-16	262	-1360	31
-162	-62	926	-1085	31
-320	-94	2098	-192	31
-276	-52	1880	626	31
-99	-42	1178	1374	31
125	-22	-302	809	31
184	17	-1494	-82	31
232	94	-678	-540	31
212	91	-728	1141	31
111	14	-1085	2629	31
57	27	-708	480	31
110	36	-907	-511	31
126	13	278	-840	31
32	-34	2366	-948	31
51	-74	2654	-678	31
33	-90	620	-766	31
32	-64	-1716	229	31
52	-10	-1912	763	31
-11	34	1	690	31
-3	74	849	-115	31
12	39	428	-523	31
-57	26	751	-37	31
-179	27	472	-101	31
-203	-2	-565	229	31
-99	-12	-1189	-166	31
-67	-34	-779	-1193	31
-25	-39	-242	-711	31
44	-62	-413	-37	31
32	-91	-67	327	31
31	-61	351	730	31
52	27	938	-108	31
74	84	355	-839	31
131	28	-883	212	31
186	8	79	2024	31
115	-17	511	2630	31
-100	-64	-275	733	31
-193	-59	-1310	-567	31
-89	18	-1121	-720	31
-128	185	151	-913	31
-199	157	798	-931	31
-57	75	786	-1274	31
50	117	146	-642	31
27	107	613	-50	31
-21	86	1785	166	31
8	11	2680	179	31
102	-82	1051	-46	31
165	-237	-2061	811	31
177	-267	-2641	1066	31
158	-4	-2405	155	31
172	110	-1742	-111	31
141	-63	1107	-104	31
-15	-84	1944	201	31
-208	325	116	378	31
-369	513	-265	-116	31
-369	116	208	-372	31
-205	-173	913	-590	31
-99	-303	752	139	31
-17	-413	-27	924	31
31	-169	94	-471	31
12	76	1093	-1434	31
67	111	470	-560	31
57	246	-2862	-77	31
42	233	-3544	89	31
99	-37	-274	-736	31
61	-181	1936	-633	31
86	-256	1188	1227	31
149	-302	102	1701	31
195	-145	4	1016	31
212	27	342	141	31
147	54	-39	-502	31
57	47	-575	-180	31
-97	25	-422	-205	31
-227	47	-353	-202	31
-280	227	408	2	31
-307	334	929	-569	31
-204	244	1715	-993	31
-62	194	1571	-586	31
63	140	-1167	1077	31
202	-91	-2393	1725	31
222	-288	-886	893	31
147	-476	-33	-545	31
126	-568	-2	-394	31
130	-167	-126	713	31
6	197	-313	-353	31
-94	89	565	351	31
-20	27	1072	57	31
54	42	789	-1366	31
32	12	-52	-784	31
-54	7	-134	-925	31
-74	-78	678	-1194	31
-41	-79	417	-536	31
3	-33	-46	212	31
-9	2	-652	620	31
-31	136	-937	2199	31
38	263	-480	1424	31
56	295	134	368	31
91	216	926	620	31
50	106	-42	-613	31
36	72	-1100	-343	31
169	61	-105	-182	31
59	12	446	-224	31
-136	-11	250	-32	31
-152	-44	39	0	31
-117	-68	179	238	31
-68	-42	283	-154	31
-51	-13	72	-514	31
-52	30	157	-570	31
-27	24	219	-164	31
8	-55	235	-96	31
41	-84	169	-257	31
46	-67	453	-246	31
54	-56	1050	-41	31
52	-56	1055	-104	31
57	-51	39	-643	31
68	18	-1853	-275	31
127	81	-2655	349	31
188	88	-1012	341	31
91	76	-425	48	31
-86	41	-473	672	31
-160	25	472	913	31
-81	-4	601	-6	31
-84	-22	1281	581	31
-141	-17	939	529	31
-127	-22	-3	38	31
-37	-19	-254	-19	31
39	-9	-186	-778	31
32	12	604	-753	31
129	26	679	-776	31
115	1	630	-647	31
112	-28	332	-183	31
131	-13	-60	7	31
102	-22	-265	106	31
102	-39	-574	1119	31
12	46	-1018	1676	31
39	162	-1141	1527	31
2	137	-657	1398	31
-79	44	-174	-1307	31
-79	-29	400	-2923	31
-109	-165	506	-1861	31
-86	-263	344	66	31
-78	-185	-116	2341	31
-89	111	-168	1615	31
39	207	249	-138	31
151	-84	-97	64	31
59	-167	-391	-291	31
45	-5	-387	-553	31
61	84	-69	-467	31
64	59	291	-492	31
144	17	-229	-350	31
47	-27	-742	-24	31
-86	-27	428	100	31
-9	145	1523	-519	31
51	126	307	503	31
-99	-161	-382	795	31
-235	-205	-42	605	31
-178	47	-162	-104	31
-19	167	-54	-952	31
-78	54	398	-238	31
-149	17	319	-738	31
-45	6	56	-137	31
19	6	63	483	31
122	150	-413	191	31
139	410	83	-131	31
102	554	799	-255	31
20	362	-142	-89	31
-51	61	-683	96	31
37	-257	628	686	31
23	-486	1521	402	31
-54	-440	269	134	31
-71	-431	-666	-333	31
-111	-496	465	-259	31
-127	-273	1109	827	31
-117	-77	-478	996	31
-45	-72	-1618	-66	31
-45	57	-1540	-681	31
-1	119	-1297	-305	31
233	145	-821	-107	31
196	193	-285	154	31
-21	154	86	-212	31
-9	117	67	-377	31
84	37	214	-162	31
73	78	287	16	31
34	132	392	380	31
67	52	673	201	31
99	21	896	26	31
-27	-106	934	-211	31
-62	-239	684	-487	31
-15	-137	-113	-1028	31
-147	123	-855	-1020	31
-116	289	-869	199	31
5	182	-819	1383	31
34	96	117	1059	31
49	-77	821	206	31
71	-380	502	329	31
102	-371	365	140	31
87	-107	171	132	31
106	174	280	194	31
98	225	300	-527	31
27	113	12	-1376	31
-59	71	-214	-1568	31
-81	57	-250	-648	31
-43	60	-9	803	31
-41	48	27	1777	31
-78	14	44	1256	31
-151	11	241	-409	31
-80	15	333	-828	31
66	-31	165	811	31
-91	-93	-192	2035	31
-776	-5	-355	1243	31
-1391	224	-277	-308	31
-1415	384	-451	-175	31
-1670	270	-624	-513	31
-1236	-106	-623	-1136	31
543	-285	-540	-676	31
1982	-122	-184	-406	31
2487	-39	-363	-525	31
1839	-31	-733	-780	31
1210	250	431	-270	31
1029	526	1533	650	31
483	290	589	1164	31
232	-49	-87	279	31
6	-252	136	-265	31
-226	-493	72	-184	31
-147	-434	352	-434	31
-195	-99	657	-567	31
-259	42	511	-600	31
-164	-47	-190	-485	31
-109	-69	-735	-259	31
-131	53	-570	197	31
-157	231	-137	217	31
-143	144	66	65	31
-166	-69	31	75	31
-130	-184	173	39	31
-12	-325	446	187	31
-140	-172	826	262	31
-220	17	415	220	31
-194	-11	-217	245	31
-236	38	-657	71	31
-127	61	-1034	-362	31
-66	69	-321	5	31
-250	94	232	573	31
-229	82	-57	147	31
-15	76	68	-91	31
8	62	418	-24	31
83	75	218	118	31
34	111	-416	450	31
-57	106	-741	217	31
50	7	-247	-222	31
79	-56	24	25	31
41	3	-121	242	31
2	112	-28	-8	31
-116	161	57	-104	31
-162	64	235	-255	31
-61	-49	310	-247	31
-76	-101	364	139	31
-101	-8	468	324	31
-34	-10	409	-121	31
-19	-255	644	-924	31
33	-340	1050	-835	31
42	-235	1015	334	31
-248	-91	148	1089	31
-828	31	-1057	444	31
-637	43	-1681	56	31
293	-72	-1279	1375	31
626	97	-102	472	31
663	631	335	-1381	31
444	597	189	-146	31
86	87	182	-245	31
-263	27	3	-345	31
-345	67	76	-449	31
100	-205	-72	-364	31
77	-408	-378	840	31
60	-288	-312	724	31
66	255	-109	375	31
-124	599	-236	-180	31
97	305	-80	-86	31
285	66	251	-661	31
309	-190	143	-515	31
259	-598	132	-222	31
118	-491	35	-269	31
229	-119	90	134	31
275	-32	183	-52	31
-11	-41	373	126	31
-54	-99	385	2	31
28	-246	175	11	31
-65	-256	-1	-157	31
-92	-132	-235	-346	31
-119	5	-79	-550	31
-144	57	241	-688	31
-255	96	382	-193	31
-225	99	97	81	31
15	74	-16	281	31
27	106	135	630	31
-9	93	188	1079	31
-284	72	211	741	31
-522	75	-308	-28	31
-214	123	-570	627	31
93	174	-563	1376	31
-377	217	-831	389	31
-1262	373	-386	-544	31
-745	485	-74	-424	31
234	288	41	-476	31
742	-40	435	-415	31
1137	-254	482	-315	31
884	-457	483	-194	31
839	-382	235	47	31
460	-99	-37	-116	31
62	29	-279	256	31
-20	84	-291	35	31
147	-104	-293	-550	31
343	-79	-269	-219	31
-136	247	372	-274	31
-16	154	165	-265	31
67	-22	-102	-129	31
-117	-116	283	-331	31
-217	-210	676	-505	31
-134	-168	808	-432	31
-345	-85	358	486	31
-1165	28	-107	1602	31
-1565	58	-516	733	31
-2123	41	-262	-560	31
-2288	-8	402	-653	31
-515	72	267	-1141	31
1535	184	-92	-314	31
1706	-18	-168	1193	31
1923	-146	-545	1608	31
2009	17	-834	1273	31
1277	126	-837	746	31
980	88	-374	400	31
490	142	190	-317	31
199	263	42	-734	31
-865	363	25	-959	31
-2094	491	-74	-1068	31
-1696	345	-260	-1001	31
-356	-100	1	-141	31
965	-428	378	-107	31
1055	-667	818	-159	31
598	-743	723	523	31
106	-491	247	282	31
-819	-182	19	608	31
-2886	-4	-147	474	31
-4000	124	-225	92	31
-2973	145	-350	100	31
-454	71	-237	-150	31
2500	91	151	-585	31
4000	43	179	-1211	31
4000	-48	-22	-881	31
2470	-72	-230	743	31
1330	-56	-227	1628	31
-127	353	-205	1118	31
-805	854	-325	433	31
505	704	118	-329	31
393	195	541	-231	31
-393	89	227	-388	31
189	57	87	-456	31
144	-420	239	-168	31
-106	-656	411	-207	31
-422	-411	422	102	31
-496	-78	333	30	31
-616	41	353	328	31
-635	21	71	434	31
-293	-2	-120	227	31
107	7	-311	-91	31
322	101	-477	-362	31
-40	30	-285	-277	31
-127	17	-235	-667	31
-352	-39	22	-690	31
-406	-164	375	-577	31
-407	-152	372	-427	31
-557	-132	79	392	31
-301	-26	-387	584	31
-298	29	-669	885	31
-377	71	-565	505	31
-435	155	-137	-525	31
-16	305	272	112	31
123	344	397	370	31
-710	60	115	17	31
-956	-145	-396	159	31
-186	-194	-724	362	31
519	-131	-564	-11	31
330	-98	-16	-349	31
182	-262	475	-310	31
126	-197	597	196	31
74	17	259	599	31
-52	61	-165	-457	31
-222	94	-205	-1643	31
17	97	144	-1696	31
-312	124	331	-80	31
-586	147	135	2028	31
-517	74	-102	1851	31
-1489	70	-266	347	31
-4000	22	-22	-502	31
-4000	-96	613	-434	31
-1284	-109	540	90	31
2752	-66	181	-40	31
4000	-29	-99	312	31
4000	-11	-437	745	31
3150	-35	-41	1120	31
1307	-23	503	736	31
-123	57	1090	-969	31
-40	159	924	-1399	31
-1768	164	-132	-1684	31
-2614	21	-716	-1329	31
-683	-53	-1113	-191	31
491	86	-952	1534	31
863	285	-457	1865	31
1791	154	-200	149	31
2015	-21	-238	-159	31
1641	88	-294	-407	31
1034	-121	-273	-312	31
-433	-324	-36	-493	31
-911	4	758	-549	31
-1129	281	618	-900	31
-1128	158	64	-1382	31
262	-106	84	-340	31
307	-277	403	1497	31
-2563	-314	733	2474	31
-4000	-72	426	1257	31
-2058	149	-142	495	31
310	108	-693	-122	31
-844	116	-932	-774	31
2014	69	-329	-1654	31
4000	-78	583	-1311	31
3055	-272	982	69	31
2648	-323	618	276	31
1813	-134	-536	1076	31
-972	22	-1242	1524	31
-1219	153	-1210	264	31
-715	152	-530	-1308	31
-623	149	748	-619	31
154	180	792	167	31
749	69	249	675	31
1663	-3	-268	1477	31
690	-137	-589	-29	31
-2142	-184	-190	-145	31
-4000	44	-115	650	31
-3754	30	-234	-403	31
-1650	-160	-165	-462	31
611	-34	187	-714	31
1192	169	609	-1254	31
1469	203	945	-817	31
1779	137	921	-345	31
-2769	22	594	608	31
-4000	34	480	994	31
1889	31	185	949	31
4000	11	-331	847	31
3124	27	-647	-619	31
3609	-89	-222	-1056	31
2514	-122	310	18	31
638	-119	117	720	31
669	-65	-302	332	31
-749	169	-458	-1184	31
-2037	415	-347	-1444	31
-1555	343	-212	-578	31
279	22	-363	-99	31
-147	-216	-512	356	31
-1967	-445	-66	765	31
-2585	-327	280	393	31
-1722	-14	292	-368	31
1084	-6	373	-154	31
1744	129	76	994	31
1200	241	-310	1184	31
721	-82	-150	-57	31
-274	-254	406	-768	31
-918	38	716	-1214	31
-944	92	878	-1493	31
740	-158	791	-808	31
1109	-177	395	726	31
763	-174	0	1362	31
924	-140	-613	2243	31
159	87	-827	2056	31
-11	208	-824	-191	31
-279	147	-771	530	31
-410	121	-448	-67	31
2	137	-196	-1177	31
-292	114	77	-450	31
-609	35	160	-615	31
-378	-29	265	375	31
12	79	543	215	31
62	249	764	-658	31
-254	324	423	-738	31
-811	208	-413	-365	31
-1794	52	-1258	-331	31
-2194	-132	-1257	4	31
-613	-269	-246	337	31
794	-92	108	-615	31
566	30	442	-532	31
542	40	1020	-746	31
-98	-64	901	277	31
-572	-339	536	1906	31
567	-254	-175	2318	31
-632	78	-984	682	31
-3045	40	-752	-495	31
-2459	-272	-137	-151	31
-76	-392	-45	-1459	31
1721	-186	319	-919	31
2878	74	519	-478	31
2605	142	628	-297	31
1422	111	896	-636	31
1262	27	516	-845	31
540	-31	385	191	31
517	-7	855	141	31
277	72	994	13	31
21	180	696	347	31
363	101	-6	980	31
-252	-33	-1067	-681	31
-245	-86	-1615	-1226	31
-373	-69	-1689	639	31
-354	69	-1854	2298	31
-1097	140	-1524	2280	31
-3163	171	-372	171	31
-3368	191	508	638	31
-1601	138	617	-96	31
-303	112	679	-1672	31
1094	19	1240	-1302	31
1736	-102	963	-1742	31
2028	-131	-335	-1182	31
2585	-78	-448	-602	31
1269	10	-575	520	31
395	31	-686	2442	31
-1646	21	241	3127	31
-2798	34	1261	144	31
76	31	1618	-660	31
1430	31	629	142	31
1160	21	-667	-2429	31
1126	-29	-1442	-1826	31
705	-16	-1179	-241	31
522	-2	-805	1357	31
383	2	-607	2904	31
-41	56	-92	865	31
-688	14	436	-1267	31
-931	-57	1215	-968	31
-23	-22	1272	-890	31
251	59	779	-640	31
-207	61	249	244	31
364	51	-498	-198	31
-255	49	-967	-147	31
-1746	-100	-838	1164	31
-1285	-187	-515	988	31
-59	-86	-15	-151	31
121	133	493	-513	31
972	290	712	-1236	31
1139	-13	844	-1178	31
88	-323	360	-444	31
336	-140	48	564	31
-540	47	235	584	31
-245	37	438	-663	31
99	62	882	-91	31
-1238	90	1291	628	31
-1217	69	573	1149	31
-309	16	-1091	1326	31
552	-43	-1880	428	31
263	-22	-1708	-112	31
640	-29	-736	139	31
16	-17	142	282	31
-1099	53	159	-397	31
-129	62	236	-511	31
604	104	442	-1068	31
1012	252	300	-1404	31
1004	360	19	-577	31
259	112	-21	853	31
-46	-282	-215	1837	31
82	-441	-91	869	31
-71	-404	128	-682	31
75	-233	25	-1170	31
47	-127	257	-665	31
-837	-71	367	-144	31
-3579	143	137	-513	31
-4000	200	-200	-918	31
420	109	-422	961	31
3615	132	-217	1763	31
2566	76	242	1200	31
2696	-24	229	843	31
1131	-37	-57	-825	31
392	-6	-162	-1114	31
578	11	-33	-251	31
-310	-31	175	386	31
-92	-32	227	451	31
39	44	158	-36	31
-538	62	-112	-317	31
-2250	6	-163	-371	31
-1488	-19	-133	-259	31
1419	10	-111	-517	31
1141	168	161	-320	31
64	149	599	-221	31
-863	-212	789	-59	31
-565	-283	545	362	31
1117	-52	179	233	31
676	82	-536	536	31
537	106	-978	652	31
232	69	-718	229	31
-428	48	-721	-72	31
-503	107	-496	-359	31
-1668	162	432	-482	31
-1430	114	783	-502	31
528	24	516	-783	31
971	-111	-85	-96	31
313	-115	-915	1397	31
-156	101	-789	1434	31
-1534	214	-549	283	31
-3555	103	-561	-315	31
-3323	19	239	156	31
1810	-232	703	325	31
3545	-574	596	107	31
763	-291	472	-254	31
543	111	258	-495	31
207	47	220	-329	31
646	-7	-10	-1015	31
1118	17	-25	-619	31
936	5	459	464	31
979	40	524	447	31
423	64	-192	767	31
319	124	-922	535	31
56	275	-845	-419	31
11	322	-326	-461	31
-125	164	433	-14	31
-369	-11	761	-547	31
-467	-217	455	-1104	31
-497	-294	243	54	31
-97	-77	129	1099	31
107	-31	169	947	31
-330	-96	-26	716	31
-1151	98	-407	-302	31
-1994	317	-347	-279	31
-1270	359	62	8	31
858	134	89	-658	31
1295	-219	-121	-106	31
1023	-523	-34	2	31
706	-561	12	112	31
349	-266	139	-107	31
372	-12	257	-473	31
-136	76	109	-244	31
-157	109	47	-543	31
-1	138	7	-756	31
35	114	-77	-879	31
-159	47	-159	-467	31
-517	42	-223	1147	31
-184	44	-266	2212	31
46	22	-166	1090	31
-189	12	-22	147	31
-132	-15	17	95	31
-235	-6	68	-31	31
-555	6	144	-186	31
-357	-1	178	-237	31
167	-7	174	-90	31
305	-32	375	60	31
144	17	603	97	31
218	94	420	-117	31
-3	178	157	187	31
-257	156	-42	-185	31
-572	56	-94	-912	31
-922	101	332	-468	31
-303	37	441	232	31
197	64	-245	685	31
-26	368	-882	795	31
-170	318	-1052	57	31
-425	-42	-1158	-952	31
656	-137	-648	-330	31
1357	-165	-129	-11	31
333	-314	3	-320	31
192	-129	320	229	31
195	115	140	708	31
187	61	174	331	31
-284	4	296	-361	31
-951	-121	330	265	31
-1256	-243	298	192	31
-28	-188	171	-141	31
1433	-2	469	-395	31
-1200	77	520	-998	31
-2588	-88	272	-623	31
437	-84	-149	197	31
2333	9	-482	1070	31
1897	3	-518	567	31
1192	42	-182	-390	31
469	41	154	-284	31
195	49	55	-330	31
186	35	-64	-299	31
35	105	-185	-66	31
232	176	-207	-224	31
112	-117	99	-611	31
-227	-294	651	-805	31
-123	-81	923	-15	31
-26	44	588	2447	31
-161	91	147	4000	31
-199	211	-468	1624	31
-186	139	-1019	-1687	31
-197	86	-827	-2281	31
-446	148	-533	-506	31
-924	81	-488	-49	31
-982	6	-222	-693	31
-357	108	79	-333	31
196	322	140	-515	31
146	220	278	-199	31
-152	11	349	-180	31
-268	-269	340	-60	31
-138	-649	324	203	31
-241	-518	241	199	31
399	-166	182	161	31
842	-82	-7	-17	31
192	-99	-149	232	31
552	-47	-234	-22	31
337	8	-158	-21	31
-483	103	194	-104	31
-312	149	269	47	31
-380	121	119	243	31
-88	112	72	22	31
249	53	-63	10	31
172	29	-47	-89	31
282	33	46	84	31
223	61	33	76	31
102	67	41	36	31
37	65	19	-7	31
139	89	52	-160	31
52	71	94	-478	31
-63	26	326	-892	31
64	-101	977	-713	31
-13	-195	1283	-262	31
-80	-187	570	710	31
-90	-101	-515	2529	31
-126	49	-1570	2127	31
-129	133	-1805	-1014	31
-110	205	-523	-2611	31
-97	317	214	-2617	31
-37	314	-96	-1814	31
-94	162	-53	1404	31
-306	82	57	4000	31
28	-35	-228	3436	31
252	-134	-414	-299	31
-260	38	-27	25	31
-512	61	-393	-452	31
-720	-97	-344	-1397	31
-1595	-250	689	-132	31
-1711	-325	575	34	31
-1505	-39	189	325	31
-1099	350	-51	-208	31
1142	469	-129	-716	31
996	293	182	-418	31
1259	106	339	-522	31
2643	-75	353	-355	31
644	-347	225	-102	31
869	-291	117	-219	31
1102	-190	-119	-507	31
694	-227	-139	-523	31
625	-190	199	-246	31
-673	-279	315	-160	31
410	-355	89	216	31
1142	-207	-126	426	31
774	22	-322	4	31
-64	36	-229	-26	31
-1125	47	179	-44	31
-1478	70	134	20	31
-1047	39	67	94	31
1168	96	138	47	31
1715	69	62	112	31
462	81	31	68	31
119	82	5	107	31
-95	64	-7	67	31
-81	73	-3	59	31
-125	52	-6	57	31
-205	63	-1	44	31
-109	52	-2	65	31
-191	56	-11	49	31
-146	51	-24	61	31
-182	42	-33	30	31
-193	38	-12	24	31
-197	30	57	17	31
-230	47	111	42	31
-239	40	64	49	31
-277	36	29	-14	31
-256	39	50	-44	31
-257	35	-34	-17	31
-225	9	-106	-31	31
-204	-16	53	-33	31
-172	-17	177	98	31
-123	-21	182	246	31
-73	-6	87	257	31
-16	4	-206	94	31
-6	2	-297	-24	31
22	-14	-259	19	31
44	-18	185	93	31
46	-10	523	122	31
17	-32	24	39	31
-7	-34	-379	-304	31
-22	-19	-803	-797	31
-71	34	-679	-645	31
-89	77	-148	-58	31
-67	24	-447	-131	31
-96	22	-503	-389	31
-106	16	51	161	31
-29	-32	958	1394	31
18	17	1638	1915	31
45	26	1015	948	31
67	36	-104	-905	31
51	200	-926	-1532	31
59	242	-1272	-378	31
97	72	-1129	1438	31
85	48	-1048	1039	31
-242	-169	-822	-1158	31
-932	-466	74	-470	31
-1373	-145	684	-179	31
-462	138	768	-252	31
728	38	812	353	31
-12	37	596	-259	31
-816	4	443	-231	31
-192	9	375	-186	31
917	106	345	-12	31
1352	126	377	-249	31
881	214	255	-483	31
577	8	98	-67	31
-87	-417	54	126	31
-479	-390	47	493	31
-396	-129	-22	661	31
438	26	-83	153	31
1086	44	-136	-330	31
184	37	-67	-475	31
-52	111	84	-950	31
286	104	182	-901	31
449	43	142	-284	31
329	-24	-113	861	31
98	-118	-238	1599	31
-24	-121	-264	1172	31
-191	-51	-285	207	31
-97	-27	-167	-662	31
-176	-29	-24	-540	31
-199	22	175	-566	31
-117	97	239	-250	31
8	136	96	175	31
25	139	-146	389	31
-86	197	-379	500	31
-27	401	-430	435	31
-54	541	-398	277	31
-90	322	-157	-424	31
-347	-151	98	-62	31
-444	-535	248	-154	31
-199	-702	492	-1224	31
-991	-429	664	-1246	31
-1951	90	560	214	31
-491	106	403	2322	31
-653	-41	486	1846	31
-4000	-91	278	-169	31
-3132	-262	-382	-78	31
3042	-86	-1172	-310	31
4000	122	-1629	-617	31
3786	61	-1119	-597	31
2648	69	-89	-821	31
1119	37	288	71	31
1363	-4	104	-252	31
641	77	174	-269	31
-1568	76	290	57	31
-1155	39	372	179	31
833	121	458	530	31
149	144	442	89	31
-728	52	325	-59	31
130	41	146	-131	31
378	79	6	-40	31
200	44	-162	-257	31
-142	19	-124	-419	31
310	1	-5	-149	31
385	-42	-139	22	31
-208	-48	-228	517	31
-61	-29	-1	415	31
-181	-21	147	-22	31
-188	19	109	-18	31
-256	100	7	-21	31
-298	92	-36	-119	31
-254	-4	5	-29	31
-355	-5	-28	48	31
-317	14	179	2	31
-383	-41	245	-377	31
-347	-36	121	-973	31
-355	-17	84	-522	31
-321	-23	39	393	31
-286	-19	97	1011	31
-262	-41	479	1131	31
-164	-62	867	625	31
-141	-42	111	628	31
-90	42	-651	875	31
-57	204	-914	776	31
-54	321	-1134	-167	31
-131	122	-401	-875	31
-235	-124	-54	-573	31
-162	77	-255	-485	31
151	315	4	-383	31
157	129	107	-225	31
-204	-69	144	-154	31
-72	-272	229	-254	31
154	-566	228	-430	31
-194	-418	169	-314	31
-227	-97	81	-319	31
10	-5	10	-400	31
-91	32	177	-662	31
38	30	453	-809	31
112	-22	353	279	31
69	-90	84	1797	31
147	-46	-215	1465	31
103	54	-343	-26	31
-1	68	-199	-483	31
-388	42	6	-285	31
-437	31	272	26	31
-369	139	289	282	31
-901	76	199	355	31
-314	-179	114	214	31
983	-111	-71	118	31
1043	120	-59	192	31
687	172	-42	212	31
260	109	-324	-272	31
192	45	-557	-933	31
238	-3	-624	-694	31
-90	-39	-219	-677	31
49	-41	551	-212	31
62	-9	625	250	31
234	49	275	-170	31
70	71	-31	262	31
-123	54	-174	1294	31
272	30	-18	1151	31
223	21	116	-299	31
-286	22	-4	68	31
-753	39	-107	161	31
-425	37	-217	-780	31
-617	27	-343	-337	31
-477	31	-282	-44	31
146	-87	-111	192	31
-502	-93	173	-59	31
-758	62	224	97	31
-660	83	237	604	31
395	78	219	129	31
1730	56	86	-576	31
1079	2	111	-670	31
182	-42	37	-86	31
-636	-45	-27	214	31
-1215	137	73	118	31
-1099	237	146	-94	31
863	142	123	-14	31
2480	101	54	32	31
1231	-42	-119	157	31
1007	-169	-199	233	31
369	112	-125	88	31
-297	250	61	14	31
-181	-235	249	-136	31
-579	-651	230	19	31
-125	-544	3	46	31
-471	-195	-160	-341	31
-515	-19	-19	-511	31
93	-20	9	-304	31
361	135	-27	-297	31
364	332	-46	-246	31
197	283	-105	-18	31
46	120	-62	149	31
1	38	104	769	31
-838	-106	165	1227	31
-1991	-162	17	377	31
-266	24	-86	-242	31
1292	47	-182	-87	31
776	-95	-137	-242	31
470	-162	-121	71	31
104	-109	-134	129	31
-97	43	190	-110	31
-105	54	430	89	31
-69	46	88	194	31
12	84	-447	419	31
-74	67	-796	300	31
-324	205	-581	-340	31
-499	418	224	-702	31
-66	298	561	-567	31
297	-154	599	-335	31
202	-415	510	-270	31
143	-358	-44	7	31
-82	-106	-578	-39	31
-160	86	-467	-64	31
-82	15	109	390	31
-97	32	283	447	31
-79	38	261	454	31
-154	16	205	287	31
-104	67	34	45	31
-33	52	-56	181	31
15	79	-59	-253	31
61	52	-26	-230	31
17	18	-110	314	31
15	-10	-129	-134	31
9	-34	-6	-418	31
99	24	44	-216	31
96	33	137	269	31
-140	27	198	84	31
-611	22	127	-397	31
-801	15	91	56	31
30	30	117	-316	31
437	27	72	-657	31
505	14	-107	-7	31
537	-4	-225	633	31
-314	-12	-335	650	31
-276	-4	-230	-42	31
-21	5	104	-302	31
32	-7	205	-256	31
455	-4	119	261	31
274	9	85	784	31
292	12	-39	286	31
72	7	-224	-294	31
-330	4	-120	-443	31
-247	6	115	-415	31
-464	-7	288	-387	31
-415	-49	434	242	31
309	-99	448	470	31
357	-69	270	-37	31
89	0	-169	9	31
116	29	-796	-213	31
-326	56	-952	-462	31
-135	43	-729	-234	31
347	21	-357	433	31
217	101	177	651	31
-240	182	373	394	31
-192	-9	244	400	31
376	-263	25	-51	31
238	-98	-19	22	31
146	118	66	-113	31
-52	42	258	-77	31
-646	21	335	212	31
-623	80	241	-344	31
201	109	205	-82	31
661	164	61	-24	31
362	87	-120	-109	31
132	-93	-170	-40	31
50	-179	19	-156	31
204	-170	116	-36	31
-217	-124	111	-73	31
-1126	-219	229	2	31
-1108	-157	438	-5	31
-34	74	445	106	31
-631	54	112	249	31
-1793	35	-161	262	31
788	17	-485	-192	31
2553	-2	-433	-634	31
1818	56	49	-91	31
1285	56	168	79	31
420	94	76	-86	31
82	175	-108	69	31
12	183	-423	29	31
-131	88	-402	101	31
-267	-13	-1	-53	31
-127	-189	216	-477	31
-46	-351	80	-424	31
-282	-97	-114	-39	31
-192	138	-315	306	31
-194	-136	-165	479	31
-117	-203	219	211	31
-71	160	255	30	31
-153	628	167	177	31
-145	941	138	204	31
-159	579	123	152	31
-636	-39	198	-34	31
-1132	-623	262	-91	31
-288	-1110	194	-164	31
786	-788	214	-99	31
750	-144	131	177	31
310	-21	-29	319	31
112	22	-198	249	31
-484	99	-581	-14	31
-428	26	-563	-280	31
11	14	-146	-682	31
-512	-21	98	-365	31
-43	2	116	-71	31
390	45	29	-34	31
222	41	-66	692	31
242	104	-338	307	31
67	147	-274	-374	31
152	170	37	166	31
63	118	401	364	31
3	54	815	417	31
-107	47	476	232	31
-124	64	248	-19	31
17	101	-212	-36	31
-97	153	-716	-626	31
-132	177	-426	-597	31
-172	-34	-403	-305	31
-91	-237	-170	-257	31
11	-63	-68	-98	31
111	128	-4	71	31
150	53	294	322	31
80	-2	141	306	31
140	11	119	355	31
-4	-5	102	955	31
-220	38	40	931	31
-171	44	315	338	31
60	1	450	62	31
223	-6	-15	-657	31
128	4	-182	-706	31
-2	11	-114	-418	31
-98	-4	-88	-696	31
-64	-9	315	-212	31
6	-11	201	257	31
-21	-12	-277	-82	31
50	-7	-625	-301	31
67	21	-548	-86	31
89	117	-58	0	31
102	141	38	44	31
92	87	-107	7	31
114	27	121	37	31
26	-159	290	79	31
-241	-259	182	-68	31
-480	-143	170	59	31
-136	-78	121	-12	31
115	-83	172	44	31
-206	-34	131	134	31
-220	12	97	85	31
82	23	184	136	31
273	25	110	131	31
-229	26	36	142	31
-1148	19	-28	96	31
-427	8	-73	94	31
985	88	-150	-27	31
898	302	-112	-149	31
654	413	-29	-59	31
398	399	-57	77	31
235	307	81	112	31
242	-336	204	232	31
-54	-976	84	34	31
-49	-647	1	-570	31
-161	-89	62	-729	31
-103	11	172	-546	31
-26	-19	32	129	31
-129	51	-205	717	31
-152	94	-225	570	31
-130	37	-309	456	31
-139	17	-161	109	31
-175	71	28	-63	31
-44	100	27	-4	31
27	165	126	-99	31
86	415	98	6	31
41	586	66	-66	31
-35	387	-11	-3	31
7	67	-52	27	31
29	-259	17	-301	31
34	-642	101	-591	31
-49	-669	207	-399	31
-142	-271	175	-72	31
-71	4	180	558	31
-40	123	110	1105	31
-94	240	-170	191	31
-63	-2	-448	-237	31
-79	-297	-578	224	31
-72	-111	-427	581	31
26	107	53	254	31
196	74	656	-819	31
188	74	959	-332	31
-139	240	695	-280	31
-245	389	80	-446	31
-217	199	-689	131	31
-557	-84	-1162	-149	31
-487	-208	-680	59	31
184	-357	-77	-209	31
421	-192	212	-210	31
544	117	375	394	31
449	126	335	776	31
116	160	223	362	31
53	217	-56	-977	31
-118	243	-181	-632	31
-71	219	-149	-161	31
115	-20	33	15	31
111	-159	94	425	31
21	-157	-17	381	31
-144	-232	-99	189	31
-746	-224	-330	-162	31
-1239	-137	-243	137	31
-693	-27	246	186	31
398	9	625	124	31
1014	-22	510	249	31
744	117	39	289	31
385	162	-272	-94	31
234	-76	-179	-349	31
503	-171	-34	680	31
524	21	66	1294	31
170	159	-89	633	31
136	137	-449	-961	31
-10	98	-389	-1518	31
-19	69	-259	-883	31
21	72	-236	-365	31
28	63	178	-164	31
-42	34	425	-204	31
-23	-2	305	115	31
-37	-44	337	-31	31
-243	-50	156	69	31
-677	-54	109	69	31
-1182	-19	146	-59	31
-847	6	87	-61	31
-97	-4	97	-319	31
928	49	65	-242	31
1280	59	243	-174	31
219	21	466	359	31
-242	2	418	759	31
89	-9	-190	617	31
46	-16	-846	377	31
9	-10	-912	-239	31
24	7	-418	-106	31
12	29	61	-50	31
78	31	236	-89	31
39	68	375	860	31
54	157	269	681	31
25	-50	177	37	31
-3	-312	159	53	31
1	-134	-12	72	31
4	73	82	-72	31
-66	30	340	-156	31
-185	50	154	-96	31
-112	193	-116	-159	31
-149	202	-189	-189	31
-158	43	-445	-347	31
-84	-84	-498	-254	31
-67	-232	-210	81	31
-12	-347	87	-96	31
11	-180	134	-251	31
41	41	-16	-92	31
52	97	-50	-177	31
57	136	22	-111	31
27	102	154	-69	31
-2	43	198	14	31
-18	39	184	218	31
-65	-42	140	117	31
-74	-79	-12	119	31
-104	-52	-177	35	31
-139	-34	-252	-85	31
-131	42	-83	-37	31
-151	159	41	-124	31
-87	246	70	-164	31
33	200	100	-100	31
39	69	14	93	31
49	-148	-82	678	31
20	-328	-172	627	31
22	-209	-142	77	31
69	-168	-22	68	31
33	-320	-109	12	31
31	-139	-360	63	31
54	90	-34	-12	31
72	122	706	-175	31
-1	134	866	-56	31
-59	85	303	-96	31
-49	240	-87	-111	31
-35	477	-151	-164	31
-15	420	-203	-751	31
-47	187	-77	-427	31
-68	-84	-4	602	31
-27	-451	393	310	31
23	-575	600	-198	31
-43	-172	101	-5	31
25	238	-496	12	31
136	324	-1218	-199	31
52	194	-1397	-73	31
75	-235	-265	-81	31
124	-526	1017	-133	31
118	-177	1324	-97	31
108	75	1095	-4	31
-7	-51	430	183	31
-14	-54	-653	419	31
47	-16	-978	436	31
-71	57	-345	-475	31
-61	127	243	-839	31
-28	92	587	-903	31
-61	121	495	-424	31
22	104	-208	738	31
90	35	-820	911	31
141	56	-832	1101	31
102	107	-684	658	31
54	48	-355	219	31
73	-159	243	114	31
131	-212	11	-82	31
52	-62	-595	44	31
-36	155	-265	-2	31
15	229	179	444	31
-26	5	-300	310	31
-89	6	-553	-447	31
-146	218	631	-317	31
-101	336	1834	26	31
-35	362	1854	140	31
-28	164	1097	65	31
-19	-28	-188	-510	31
-21	-164	-1122	-888	31
51	-337	-1236	-329	31
80	-283	-1118	-194	31
109	-81	-616	-397	31
109	-39	272	113	31
34	-32	646	-5	31
-18	-8	549	-237	31
-26	-32	355	-169	31
-47	-9	166	-167	31
-59	-20	217	56	31
-36	-16	518	202	31
-74	-7	668	117	31
-64	-34	350	-126	31
-52	-36	-27	420	31
-52	-1	-502	1089	31
-70	113	-631	868	31
-100	165	-771	79	31
-27	103	-1538	-302	31
56	7	-711	76	31
105	-124	1089	-156	31
116	-206	1746	-384	31
147	-170	1562	-375	31
107	-85	166	-340	31
82	-11	-974	202	31
82	27	-999	68	31
23	44	-871	-397	31
22	69	-277	-471	31
-4	57	119	-434	31
-16	3	248	-181	31
-61	-26	546	294	31
-64	-20	333	675	31
-7	-15	636	1101	31
17	-1	900	705	31
71	12	301	-76	31
85	43	-47	29	31
119	86	-822	-171	31
56	129	-2391	-36	31
-44	114	-3113	77	31
-67	-6	-220	-154	31
-96	-22	2591	-380	31
-62	-82	2141	-820	31
-74	-245	1027	-851	31
-49	-107	566	-972	31
-3	70	649	-951	31
-49	-24	59	-36	31
-70	-71	593	2011	31
-86	-61	955	2191	31
1	33	-733	-190	31
122	86	-2546	-570	31
110	-88	-2091	-325	31
94	-44	-608	-189	31
113	119	-651	1420	31
92	165	-546	1329	31
-6	185	-688	-67	31
-5	121	-564	-901	31
-55	96	1154	-1475	31
-134	69	3247	-1970	31
-39	61	2819	-785	31
-96	206	71	880	31
-34	400	-1684	1622	31
44	377	-1733	2027	31
-28	2	-897	585	31
-2	-241	-390	-181	31
-47	-275	-360	-261	31
-41	-487	156	-484	31
0	-423	526	-386	31
17	-115	516	-629	31
34	-104	771	-405	31
16	-87	462	-595	31
-54	16	496	-417	31
-36	77	804	-317	31
88	97	417	329	31
154	-14	147	1407	31
136	31	-132	1614	31
49	92	-989	1574	31
-42	39	-1123	302	31
-208	131	-894	-971	31
-307	199	-812	-1212	31
-271	44	286	-831	31
-138	-325	-103	-159	31
-4	-359	-648	221	31
-99	-26	576	255	31
-167	52	1360	-297	31
-97	102	999	-1017	31
-25	187	540	-995	31
82	132	414	-840	31
175	82	768	-429	31
312	62	1142	-19	31
290	116	-403	171	31
143	79	-1313	352	31
172	-42	-187	94	31
102	-52	686	690	31
-75	-34	591	613	31
-154	-57	-97	-982	31
-162	-58	-1074	-1703	31
-221	-4	-1441	-485	31
-240	56	-1293	958	31
-72	124	-1491	1051	31
82	212	-435	1065	31
165	181	9	1451	31
173	48	744	1314	31
178	-82	1850	412	31
174	-284	897	-296	31
78	-310	102	-354	31
4	-94	-928	-48	31
19	-10	-590	-483	31
34	27	-102	-653	31
44	72	340	-142	31
99	11	2059	-969	31
94	-49	2007	-2031	31
23	-71	290	-1494	31
-85	-8	-1910	196	31
-147	-14	-2311	1541	31
-165	-61	-767	2827	31
-191	40	31	2106	31
-110	112	-475	-773	31
-18	110	-172	-1398	31
4	84	689	-314	31
36	105	459	568	31
24	80	2	502	31
-9	-26	-235	-643	31
54	-59	570	-305	31
140	-85	1114	474	31
200	-34	531	799	31
217	47	438	615	31
152	40	-57	-308	31
68	5	215	45	31
-45	-66	923	780	31
-144	-69	-67	334	31
-176	-30	-1533	-773	31
-227	-19	-1412	-1059	31
-227	-44	-338	-711	31
-129	-120	-224	-731	31
-17	-85	-220	-1084	31
57	43	924	-560	31
87	102	2078	217	31
93	147	1196	31	31
-8	265	-470	578	31
-64	185	-1092	1158	31
-27	23	-1505	48	31
-94	1	-1523	-825	31
-198	-104	-934	-280	31
-126	-176	-193	86	31
5	-159	340	507	31
69	-91	544	430	31
228	-20	906	-63	31
220	12	843	-112	31
48	46	1193	46	31
43	91	1162	513	31
36	210	-152	587	31
-2	139	-169	286	31
-14	56	-633	-717	31
19	107	-1004	-370	31
77	64	-597	763	31
96	40	-927	-76	31
119	-6	-182	-493	31
125	-49	-219	-749	31
56	-84	112	-812	31
-96	-112	639	265	31
-125	-69	225	313	31
-112	-21	591	48	31
-91	-21	982	329	31
-24	-48	1227	321	31
-51	-31	703	174	31
4	-11	-138	188	31
3	-14	-899	67	31
-14	-47	-1215	-233	31
-79	-73	-837	-538	31
-219	-64	-213	-617	31
-86	-71	264	-810	31
-9	-54	425	41	31
0	7	1164	1435	31
144	64	1041	1709	31
225	50	-144	1445	31
213	71	-741	133	31
132	81	-656	-963	31
51	17	134	-1443	31
-47	45	-194	-1675	31
-137	41	-1303	-336	31
-162	-9	-899	1391	31
-146	-37	-171	1263	31
-90	57	416	92	31
39	89	219	243	31
174	-143	-119	60	31
63	-175	864	-449	31
-1	-14	817	-169	31
204	57	-839	100	31
146	68	-1100	-251	31
-4	77	600	-367	31
-4	34	1153	136	31
-72	66	525	-403	31
-29	181	-32	-154	31
33	129	-365	-177	31
-19	61	-187	-208	31
-107	-4	79	232	31
-133	-32	-113	-157	31
-67	36	-674	117	31
-34	92	-520	-122	31
-92	82	74	-162	31
-125	-275	320	83	31
-18	-619	473	192	31
85	-373	1125	532	31
153	39	1300	306	31
176	54	595	-382	31
176	62	-173	297	31
142	277	-471	1279	31
84	393	-326	-56	31
27	446	-567	-922	31
-94	412	-1102	-1380	31
-76	172	-1350	-1371	31
-67	-193	-545	-113	31
-154	-417	148	293	31
-121	-516	202	564	31
13	-573	245	820	31
86	-335	189	-124	31
31	-62	-112	-359	31
7	-22	111	156	31
-38	41	1822	212	31
41	96	783	961	31
111	97	-1566	1304	31
114	99	-945	278	31
110	82	-4	-618	31
-11	69	678	-322	31
-2	69	525	-282	31
-46	91	274	-74	31
-52	87	523	86	31
-21	68	496	-359	31
-50	106	661	145	31
-27	209	418	538	31
-47	196	2	615	31
-41	134	-887	794	31
-102	135	-2113	15	31
-45	-75	-1238	-1079	31
26	-335	822	-582	31
13	-310	613	-118	31
80	-162	-516	-239	31
61	-149	-307	213	31
72	-40	290	-241	31
99	122	95	-502	31
47	123	-21	-475	31
-28	112	259	-723	31
-31	38	294	-341	31
-21	147	274	-125	31
-74	286	354	387	31
-81	51	452	1121	31
-162	-178	330	1058	31
-157	-92	628	344	31
-69	92	1230	-542	31
-67	89	644	-922	31
48	54	-837	-572	31
130	23	-1424	340	31
97	-26	-1361	1309	31
90	74	-1443	449	31
145	158	-604	-414	31
184	122	351	543	31
63	36	744	386	31
16	-67	472	-390	31
29	-172	-711	-585	31
-19	-210	-977	-382	31
-50	-144	-172	-104	31
-94	-55	724	-227	31
-85	-21	283	-64	31
-85	-19	-400	-260	31
-79	-2	581	-249	31
-41	-2	1165	-5	31
-14	12	783	-9	31
-4	6	783	-223	31
0	-19	1140	-408	31
45	2	651	-407	31
77	33	-559	-547	31
77	38	-884	-819	31
84	20	-647	-251	31
70	54	-488	2534	31
19	52	-507	2551	31
44	-57	-959	183	31
103	-122	-790	-29	31
-14	-38	-72	-104	31
-196	91	183	330	31
-207	24	463	594	31
-113	-109	396	86	31
-73	-29	-79	-209	31
-87	158	108	-262	31
-82	270	402	-187	31
-120	94	261	-61	31
-15	-242	-95	-337	31
182	-212	-264	-791	31
156	16	-107	-492	31
152	59	20	-467	31
164	137	124	-97	31
67	320	270	295	31
-9	329	230	122	31
-6	149	-147	235	31
-48	-24	-295	67	31
-80	-240	47	-454	31
-24	-418	284	-743	31
-115	-141	436	-250	31
-192	204	188	588	31
-143	96	-436	665	31
-74	-30	-352	-27	31
-6	-184	184	-182	31
16	-369	425	-260	31
74	-187	360	-630	31
87	-37	254	-676	31
94	-61	122	-790	31
75	-7	-97	286	31
46	39	-159	1685	31
62	71	-97	1823	31
-11	76	-700	1143	31
-26	61	-1087	-15	31
-42	97	-19	-836	31
-11	83	799	-791	31
1	42	-156	-387	31
-42	0	-636	-563	31
22	-5	126	-719	31
-100	69	424	47	31
-94	87	636	335	31
61	116	29	-146	31
22	165	-734	-35	31
75	103	-501	-329	31
41	4	57	-782	31
79	-112	542	-823	31
146	-114	649	277	31
48	131	425	1524	31
-51	144	-51	716	31
-250	-131	45	171	31
-392	-135	27	199	31
-698	52	-292	891	31
-704	140	-598	1607	31
-54	239	-623	-51	31
599	310	-97	-627	31
1016	168	-29	-373	31
721	-37	-61	-814	31
176	-119	-74	-417	31
-66	-332	70	-358	31
-239	-608	383	-245	31
-28	-490	272	82	31
224	-157	138	531	31
394	34	179	402	31
413	39	159	32	31
249	-2	134	63	31
159	4	217	-234	31
31	81	131	-127	31
-16	248	37	-232	31
-111	134	58	-227	31
-159	-176	46	-73	31
-143	-136	104	-202	31
-140	122	86	-114	31
-187	167	-2	-137	31
-220	131	-189	-72	31
-114	249	-606	-126	31
-104	315	-962	-349	31
-80	197	-395	-393	31
-11	27	691	-98	31
44	-125	1059	337	31
42	-280	723	672	31
38	-315	97	392	31
41	-171	-134	484	31
-26	-77	-268	1095	31
-29	-1	-407	421	31
-46	66	-482	-131	31
-83	48	-538	-139	31
-132	106	-184	-316	31
-139	96	194	-437	31
-117	57	293	-380	31
-113	47	188	-117	31
-120	1	122	-138	31
-66	2	-32	-268	31
-8	-2	-93	-233	31
37	1	-59	1	31
132	4	19	179	31
59	7	40	44	31
81	11	4	-330	31
137	7	165	-553	31
97	12	269	-444	31
103	1	325	15	31
-16	-41	302	1024	31
-79	-68	131	1463	31
-71	97	-126	285	31
-31	257	-173	-736	31
-36	136	-261	-121	31
-56	97	-412	543	31
-21	142	-418	237	31
-4	-9	-395	-148	31
56	-197	-325	-435	31
77	-351	-318	-352	31
124	-292	-144	323	31
87	21	440	202	31
78	94	1283	-41	31
182	5	1086	-78	31
70	41	41	-387	31
0	89	-295	-380	31
41	50	-460	-235	31
-21	-3	-315	167	31
-42	-9	235	-241	31
-80	-29	209	-229	31
-137	102	-7	19	31
-184	98	-34	-338	31
-184	-195	-51	66	31
-29	-241	-4	354	31
6	42	36	825	31
6	292	-33	560	31
119	302	-42	-6	31
127	223	-10	-265	31
144	96	-78	-765	31
86	-39	-251	-226	31
-2	-167	-305	538	31
-130	-352	-164	585	31
-566	-373	-274	-57	31
-1543	-215	-305	-635	31
-2443	-38	-36	-597	31
-1300	31	122	-498	31
1019	17	239	-435	31
2140	74	212	-13	31
1909	69	96	305	31
906	52	32	766	31
512	61	-37	1047	31
716	59	-86	795	31
661	279	-71	221	31
362	662	51	-305	31
15	699	7	-9	31
-77	328	-9	-171	31
-220	-130	294	-689	31
-121	-711	555	-1039	31
29	-979	564	-658	31
-63	-637	113	698	31
-90	-235	-427	1470	31
-150	-36	-630	775	31
-187	22	-663	-101	31
-240	-11	-333	-192	31
-349	-9	44	-434	31
-370	83	994	-341	31
-189	101	1219	49	31
-139	58	-12	231	31
-139	99	-544	749	31
-91	122	-673	477	31
-134	112	-46	-359	31
-1	92	165	-215	31
80	102	29	-69	31
86	171	294	15	31
37	223	142	83	31
-91	290	357	-268	31
-84	345	386	-517	31
-70	179	396	-645	31
-269	-109	238	-708	31
-985	-281	46	-1021	31
-1298	-160	-23	-1007	31
-512	144	-34	-607	31
400	-86	-88	515	31
647	-421	-744	1671	31
-177	-147	-1130	1597	31
-948	21	-1072	725	31
-615	7	-856	-466	31
695	84	-562	-35	31
1681	44	156	44	31
868	57	719	-406	31
-208	153	718	252	31
-161	237	650	404	31
485	144	433	192	31
1052	54	252	-459	31
813	-29	173	-307	31
165	-261	-44	-325	31
-488	-250	-416	46	31
-1341	-145	-348	623	31
-566	-145	-267	-165	31
941	-147	-262	-263	31
1048	-74	1	-231	31
515	29	58	-216	31
317	-108	99	-73	31
364	-195	132	111	31
124	74	112	383	31
48	330	49	374	31
-387	305	66	260	31
-749	139	190	-545	31
-883	6	393	-1196	31
-1034	-197	450	-622	31
-314	-284	114	412	31
350	-20	-59	1249	31
695	158	-189	1151	31
608	122	7	164	31
344	122	427	182	31
260	65	7	197	31
-289	46	-309	-269	31
-204	81	-61	-162	31
114	102	-4	-530	31
37	157	-240	-668	31
89	139	-285	-228	31
103	9	-57	209	31
-42	-184	-179	-40	31
-140	-237	-338	-77	31
90	-156	-285	61	31
91	-96	-41	-23	31
-164	-57	136	211	31
-334	-42	304	197	31
-372	-32	569	129	31
-229	-16	453	-383	31
76	72	380	-544	31
39	120	300	-14	31
-261	-23	37	335	31
-434	6	-137	791	31
-738	328	-208	810	31
-1247	95	-104	-201	31
-1846	-456	116	-467	31
-1302	-225	250	-417	31
483	318	-66	-635	31
1962	342	-445	-402	31
2420	149	-246	76	31
1618	41	36	867	31
641	-115	40	775	31
201	-152	-86	359	31
-513	21	-81	-80	31
-1104	234	464	-245	31
-733	193	759	675	31
178	-48	70	83	31
-72	-155	-734	-795	31
-1400	-280	-696	-404	31
-1014	-282	-528	-392	31
879	-31	-663	-429	31
1535	38	-434	-235	31
1390	15	-174	5	31
781	51	165	-238	31
176	-56	425	-503	31
129	-122	595	-1065	31
-533	-129	716	-1221	31
-1554	-96	256	-362	31
-1921	30	-126	1382	31
-1588	163	-600	3060	31
44	271	-1015	1542	31
1793	308	-556	-350	31
1478	399	85	-563	31
1567	237	341	-688	31
1016	-84	538	-24	31
-587	-134	648	230	31
-1823	-401	412	305	31
-2002	-624	116	532	31
-108	-361	-105	11	31
1006	-51	-333	-86	31
1761	62	-342	-194	31
1578	57	43	-143	31
613	75	405	442	31
351	87	862	615	31
263	120	961	-10	31
174	185	201	-592	31
-1746	213	-397	-322	31
-2318	132	-804	-529	31
-205	78	-673	-443	31
99	42	56	3	31
-2072	-160	169	-120	31
-3162	-214	-209	-91	31
-715	-117	-295	-86	31
1751	-37	-102	-153	31
-307	43	135	-512	31
-2538	59	397	-457	31
-983	57	195	6	31
2308	64	-119	122	31
4000	98	-17	330	31
3067	53	165	482	31
835	90	169	555	31
93	156	30	495	31
359	-99	16	-450	31
-500	-144	236	-934	31
-1235	142	462	-385	31
1909	11	500	405	31
2304	-258	87	777	31
863	-88	-546	1	31
-245	9	-787	176	31
-2595	-11	-1059	936	31
-670	159	-897	340	31
1731	65	-156	-374	31
1202	-111	187	-27	31
758	-8	260	-236	31
-1307	119	337	-590	31
-2766	75	347	-414	31
-390	-40	325	-583	31
901	-56	421	-352	31
91	-74	189	211	31
-909	-56	-322	682	31
-1528	30	-423	239	31
375	116	-334	-74	31
1403	131	-97	333	31
787	42	511	876	31
6	40	1060	1283	31
-784	65	907	347	31
-455	17	147	-294	31
-342	-19	-811	643	31
136	-29	-1285	227	31
718	22	-356	-846	31
375	46	603	-1078	31
-603	39	649	-1351	31
-1258	34	540	-1034	31
-1507	-65	419	-253	31
-1338	-117	355	1226	31
481	-30	-81	1149	31
1197	189	-723	-251	31
1299	342	-1105	-415	31
1545	160	-1101	-908	31
252	-47	-644	-187	31
-280	-201	-167	702	31
329	-344	79	-171	31
86	-218	88	30	31
-1105	-54	250	153	31
-638	13	392	-958	31
176	57	360	-1158	31
-404	-57	551	-663	31
-1105	-184	452	-117	31
-2089	-236	184	1134	31
-2376	-175	297	723	31
-3406	-1	291	647	31
-2073	130	340	1611	31
3596	144	329	395	31
3134	69	-114	147	31
574	41	-413	132	31
2254	22	-626	-255	31
2410	52	-442	-147	31
1849	126	270	-227	31
517	126	503	-633	31
-66	235	76	-1485	31
-334	260	-416	-896	31
-1623	-46	-870	-64	31
-1066	-203	-771	288	31
355	-105	-77	840	31
24	-174	181	970	31
-762	-168	267	258	31
844	-5	363	63	31
1563	-13	209	216	31
-120	26	211	7	31
-1279	67	397	294	31
-477	48	661	335	31
-452	52	793	25	31
-990	57	523	-248	31
1336	147	-210	-146	31
1742	180	-1084	-34	31
673	152	-1278	-19	31
638	113	-800	-483	31
-95	7	-78	-279	31
2	-116	472	671	31
-852	-196	474	-17	31
-1025	-71	81	-500	31
775	155	-336	-649	31
418	288	-122	4	31
-926	204	156	804	31
-576	-160	606	-137	31
284	-343	727	-980	31
267	-291	207	-665	31
-418	-245	-304	-114	31
-1433	-179	-770	-42	31
-1491	-138	-435	952	31
-2501	97	-415	1950	31
-4000	442	-98	261	31
-1866	152	610	-1286	31
4000	-272	415	-765	31
4000	-114	102	-464	31
4000	-46	76	244	31
2348	-184	328	138	31
444	-200	491	815	31
1603	-22	388	2040	31
2906	183	-9	605	31
2558	207	-679	-875	31
411	187	-779	-877	31
-1023	88	-167	-929	31
-1363	36	7	-818	31
-668	32	-109	-42	31
846	44	-132	353	31
-179	84	-116	640	31
-1261	-18	170	-314	31
-1266	-81	303	-981	31
-608	-65	432	-789	31
-1518	-70	385	292	31
-2871	-59	-74	1189	31
-1574	14	28	-273	31
-539	67	625	-697	31
299	101	400	-492	31
-1096	94	-304	268	31
-1098	47	-654	2225	31
215	82	-716	3249	31
-1460	78	-405	1579	31
-116	61	-275	-331	31
1761	41	-60	-1432	31
-37	11	453	-2334	31
-547	21	526	-545	31
-22	31	187	40	31
-492	69	58	-294	31
-383	64	-92	63	31
-1209	26	-340	-247	31
-2017	-44	-42	-321	31
-785	-104	262	-820	31
654	-93	-157	-117	31
483	-39	-651	1093	31
-250	-43	-728	484	31
-1501	-146	-560	-527	31
-2219	-71	257	-546	31
222	20	862	-228	31
-165	-68	575	-288	31
-1383	-52	335	-626	31
1032	-14	377	-483	31
1637	-63	228	1141	31
1947	-67	-209	2189	31
1059	-23	-400	841	31
174	21	-592	-1044	31
440	77	-368	-909	31
-66	121	286	41	31
-453	98	80	-109	31
-1826	36	-69	-153	31
-1284	-31	319	-816	31
-1323	-75	445	-1447	31
-73	65	329	-506	31
3045	49	146	708	31
2051	-275	-4	1363	31
-775	-163	-77	1146	31
-3004	177	165	330	31
-428	178	495	84	31
2113	88	376	19	31
1095	46	46	-226	31
1895	6	-352	-24	31
1179	-11	-819	-143	31
319	38	-714	42	31
186	102	-36	12	31
-784	95	352	-613	31
-1911	26	459	91	31
-1554	-44	335	651	31
868	-107	-299	445	31
634	-74	-573	-68	31
-732	-20	-123	-325	31
-2355	-25	134	126	31
-2030	48	234	37	31
1864	-30	192	66	31
2738	-155	-103	61	31
1480	-116	-221	-4	31
1132	-65	-396	-240	31
399	113	-344	-766	31
287	385	58	-611	31
-128	370	591	-337	31
-2111	59	1079	107	31
-3423	123	838	767	31
-2832	104	31	929	31
-3258	-385	-583	510	31
-490	-316	-419	-562	31
4000	18	-268	-949	31
3940	97	-404	206	31
2292	-7	-179	516	31
2099	-162	-293	-138	31
324	-149	-54	320	31
809	-160	479	558	31
186	-18	362	-49	31
-342	33	91	508	31
-1849	-20	-263	603	31
-3147	68	-447	-335	31
-2186	61	-263	-726	31
1061	42	193	-506	31
3042	-31	615	-75	31
535	-18	525	-146	31
472	28	14	337	31
269	1	-773	540	31
-12	36	-1012	75	31
492	34	-270	111	31
-119	60	368	192	31
-107	94	601	-13	31
-1164	57	274	-107	31
-1749	3	-54	-1267	31
-2527	-25	85	-1577	31
-112	-45	326	-345	31
2421	-20	593	-178	31
281	22	107	257	31
622	6	-394	205	31
889	22	-482	-10	31
-427	31	-585	-292	31
-359	-6	-417	-606	31
-64	-34	17	-244	31
503	2	635	309	31
-208	32	1027	512	31
-1012	49	1090	172	31
-448	90	799	517	31
933	47	126	971	31
961	-51	-791	942	31
-424	-133	-1167	411	31
-250	-109	-866	34	31
-64	8	-560	-735	31
-259	70	-205	-46	31
-258	67	-87	1017	31
-695	81	-123	720	31
-1244	107	-92	124	31
-704	69	-80	-685	31
372	24	-259	-97	31
-89	37	-255	-129	31
-651	17	121	722	31
296	-155	292	285	31
1011	-292	513	-755	31
481	-131	726	-1	31
418	-4	415	-614	31
65	-16	143	-480	31
42	62	277	-320	31
156	76	249	49	31
-578	127	313	655	31
-328	106	217	408	31
-1184	4	-304	156	31
-2213	31	-568	-52	31
-1508	26	-691	-260	31
1191	17	-412	-783	31
3044	5	58	-1049	31
1219	-2	126	-444	31
84	-7	91	71	31
697	-8	51	-269	31
962	21	59	245	31
462	0	83	390	31
-81	29	-28	149	31
-296	230	-7	94	31
-517	318	9	-397	31
-630	12	-62	-141	31
