File Name: not saved
Channel 1: 'EMG 1', 20393 values, raw ADC, no filters.
Channel 2: 'EMG 2', 20393 values, raw ADC, no filters.
Channel 3: 'EMG 3', 20393 values, raw ADC, no filters.
Channel 4: 'EMG 4', 20393 values, raw ADC, no filters.
Digitals combined (event=16, d=8, c=4, b=2, a=1): 20393 values, .

9	23	-99	126	31
84	73	-72	55	31
122	46	112	391	31
142	22	120	30	31
109	-76	25	-404	31
168	-149	-65	-230	31
123	-124	-150	-102	31
1	-107	-164	269	31
-85	-36	-134	295	31
14	28	-49	-102	31
-49	1	6	-150	31
-2	24	-55	-224	31
-31	31	-67	-307	31
-166	31	-14	-235	31
-76	52	22	-273	31
-70	79	139	2	31
5	114	289	444	31
89	48	294	293	31
135	-26	146	290	31
-156	-102	-90	381	31
-381	-160	-235	-114	31
-277	-111	-214	-149	31
-353	-42	-106	-39	31
-34	9	-41	-262	31
172	23	25	-102	31
39	29	139	82	31
113	36	186	-128	31
-191	29	179	-458	31
-701	26	177	-495	31
-640	22	147	-203	31
159	32	41	137	31
570	46	-129	418	31
402	61	-265	404	31
398	48	-382	-7	31
305	19	-428	24	31
136	7	-283	197	31
82	-11	-56	45	31
203	-25	131	84	31
232	-42	222	119	31
104	-48	244	54	31
66	-27	112	-292	31
71	9	53	-452	31
218	47	97	-9	31
35	24	-9	166	31
-343	19	11	-137	31
-28	41	177	-540	31
-85	-2	258	-706	31
-435	-37	214	-364	31
-338	-32	24	152	31
-142	1	-142	459	31
176	19	-87	192	31
-32	-19	-4	-69	31
-71	-10	18	301	31
172	22	78	881	31
167	22	66	1168	31
289	16	-57	870	31
-16	11	-161	300	31
-646	35	-106	-25	31
-404	38	-14	72	31
111	35	-64	92	31
36	26	-127	-11	31
230	9	-156	-96	31
162	17	-228	-128	31
-64	22	-182	-115	31
-16	26	-35	-403	31
-77	14	122	-679	31
101	-11	161	-567	31
161	-29	61	-317	31
24	-58	89	-134	31
13	-66	36	-197	31
107	-32	-22	-216	31
149	-7	137	-89	31
117	6	201	-50	31
-5	4	142	45	31
-31	6	17	184	31
156	38	7	78	31
-95	48	73	-304	31
-270	47	-48	-387	31
-59	23	-81	-121	31
7	-17	-64	360	31
39	-16	-157	724	31
-84	8	-73	552	31
-260	48	131	499	31
-452	97	135	335	31
-324	119	42	-122	31
259	57	1	-282	31
260	-17	-124	-640	31
-172	-75	-184	-400	31
-342	-162	-123	46	31
122	-130	-35	-131	31
543	-25	47	69	31
176	19	112	-277	31
272	15	214	-735	31
416	-7	149	-837	31
88	-6	48	-1015	31
-61	-17	91	-399	31
-133	-14	104	715	31
-109	11	110	1791	31
-46	19	124	1798	31
-5	30	149	1249	31
-79	47	-22	486	31
62	47	-210	-265	31
338	11	-137	-224	31
171	7	-150	-345	31
-167	20	-135	-221	31
-97	25	-47	-268	31
-100	61	-93	-299	31
-140	75	-171	-72	31
79	63	-147	-186	31
-118	56	-37	-181	31
-48	-6	70	-208	31
-4	-101	157	-170	31
-219	-111	121	-75	31
-191	-60	72	-5	31
-358	-46	-24	-58	31
-425	-22	-103	8	31
-14	-11	-17	138	31
518	-19	-11	19	31
344	-6	31	189	31
126	-9	62	441	31
292	2	-12	283	31
160	34	-126	40	31
94	61	-85	-96	31
207	57	123	-401	31
-31	44	139	-667	31
-839	51	99	-364	31
-1038	31	-1	3	31
-27	25	-15	186	31
642	52	10	290	31
432	81	61	7	31
365	36	190	-198	31
313	-53	145	-196	31
-102	-116	92	-50	31
-177	-169	-75	-73	31
-124	-141	-45	-166	31
11	-60	153	235	31
-153	-9	58	388	31
-470	21	-75	214	31
39	35	-82	97	31
458	42	-89	107	31
372	43	-267	92	31
209	22	-134	-124	31
19	4	123	-46	31
-39	14	92	165	31
-99	4	131	417	31
-318	5	62	-4	31
-456	21	-10	-555	31
-226	22	-7	-284	31
149	24	-71	-569	31
202	16	-87	-528	31
204	7	-64	-39	31
350	-7	-79	220	31
133	1	-73	1301	31
-21	22	-16	1578	31
83	10	-97	241	31
99	17	-151	-462	31
112	54	-27	-601	31
3	30	75	-743	31
-57	11	159	-436	31
22	22	352	-237	31
-7	-29	257	429	31
-46	-29	-22	932	31
-65	7	-117	217	31
-174	-27	-198	-310	31
-143	-33	-246	-97	31
74	-19	-161	-54	31
277	-13	128	-36	31
89	20	229	-77	31
-131	46	165	29	31
-177	41	91	326	31
-119	16	-90	187	31
69	-24	-204	-284	31
-117	-20	-185	-562	31
-41	1	2	-245	31
117	-5	172	-269	31
-128	15	252	-280	31
-169	6	225	56	31
111	-13	-1	37	31
-5	-7	-207	86	31
-346	12	-211	480	31
31	36	-70	487	31
172	17	44	41	31
31	9	64	19	31
9	27	79	-15	31
-16	51	35	-117	31
113	63	50	-181	31
93	29	69	-286	31
151	-9	110	-260	31
136	-39	152	-254	31
129	-29	93	-214	31
22	2	107	38	31
-53	-40	5	393	31
-81	-97	-126	391	31
-235	-137	-237	345	31
-27	-124	-236	448	31
-50	-44	-126	249	31
-199	-9	-29	-175	31
-249	0	27	-275	31
-254	36	-62	-319	31
-3	49	-16	-466	31
216	41	15	-253	31
249	68	37	281	31
71	78	103	363	31
-43	22	123	-121	31
-127	-22	157	-270	31
-97	-12	113	-287	31
-171	-12	88	-262	31
-500	-14	46	31	31
-287	12	-28	360	31
176	34	-96	233	31
493	44	-124	-67	31
613	34	-69	151	31
259	7	-22	13	31
122	0	19	-135	31
166	6	51	-63	31
64	10	12	29	31
-57	15	8	546	31
-139	3	-42	731	31
62	-1	-197	437	31
131	24	-237	21	31
68	43	-140	-109	31
31	22	27	-47	31
32	1	160	-101	31
17	-9	217	-199	31
-104	-55	209	-316	31
-2	-44	86	-240	31
-94	-7	-94	-185	31
-269	-6	-175	-141	31
-473	31	-13	-56	31
-892	25	214	132	31
-414	7	174	550	31
480	32	60	357	31
490	27	84	-132	31
402	14	-66	58	31
410	7	-183	-17	31
18	8	-112	-247	31
89	8	-37	-133	31
354	7	-19	-208	31
131	18	-173	-284	31
-21	26	-146	-519	31
-44	17	-39	-249	31
-22	10	-76	187	31
36	47	56	402	31
11	102	172	547	31
-61	81	171	152	31
-134	6	136	-86	31
-114	-69	121	-108	31
-106	-154	136	61	31
-154	-150	147	230	31
-64	-64	191	186	31
96	-8	142	9	31
6	15	32	-158	31
-204	26	-84	-42	31
-151	35	-194	-26	31
4	31	-242	-150	31
38	30	-204	-269	31
73	31	-86	-154	31
201	9	62	-34	31
96	12	83	-52	31
47	39	21	19	31
43	52	-25	-7	31
-110	59	-46	36	31
-80	51	-31	56	31
-156	-5	-27	14	31
-117	-91	-1	27	31
-94	-102	-25	7	31
-60	-44	-79	-47	31
-99	-17	-57	-56	31
-430	7	21	39	31
-95	6	102	215	31
272	-14	97	233	31
208	-2	69	-109	31
291	-26	69	-265	31
242	-21	65	-184	31
157	-4	21	-315	31
99	-3	-40	-367	31
-4	40	-116	48	31
10	62	-129	346	31
-17	44	64	144	31
-44	16	87	218	31
-134	15	7	325	31
-229	24	9	94	31
42	15	-7	-57	31
205	6	87	189	31
147	7	149	662	31
251	14	76	748	31
130	24	-52	214	31
44	13	-136	-688	31
187	-19	-172	-948	31
135	-36	-168	-472	31
4	-11	-96	-93	31
-83	35	85	269	31
-24	34	155	303	31
-165	19	116	214	31
-415	21	61	114	31
-553	19	-19	-575	31
-375	-2	-64	-760	31
140	-8	-172	-479	31
187	57	-126	102	31
134	109	-79	625	31
78	90	11	755	31
-30	39	121	989	31
32	-28	81	102	31
36	-160	124	-308	31
182	-223	-16	88	31
127	-126	-107	20	31
-47	-34	11	15	31
7	12	101	-360	31
-116	21	200	-216	31
-425	-1	207	10	31
-277	-1	9	-82	31
107	7	-149	-69	31
-271	4	-207	-326	31
-174	6	-213	-404	31
245	36	-91	-429	31
-1	21	-36	-241	31
169	-18	-37	1	31
57	8	-27	165	31
-117	21	20	599	31
-140	12	14	693	31
-126	22	107	263	31
305	18	302	-121	31
283	9	252	-124	31
257	12	89	19	31
198	16	102	-110	31
1	26	117	-216	31
-224	39	-74	-272	31
-761	32	-6	-107	31
-617	22	76	197	31
42	8	6	137	31
468	-37	46	137	31
618	-32	-18	171	31
369	17	-101	139	31
131	3	-191	-44	31
152	-6	-178	-437	31
189	12	-59	-519	31
199	22	-12	-204	31
207	26	-27	90	31
52	31	-30	390	31
25	55	-62	556	31
96	66	-147	256	31
4	61	-54	169	31
-51	11	46	126	31
-72	-89	39	-98	31
-79	-115	36	-349	31
-134	-61	71	-567	31
-259	-46	97	-603	31
-232	-24	22	-803	31
36	-16	-13	-524	31
47	-21	23	314	31
-114	0	2	1065	31
-53	-7	-68	1201	31
62	27	-44	949	31
133	88	90	344	31
82	146	143	-115	31
-24	135	54	83	31
-397	44	-62	-108	31
-589	-39	-88	-88	31
-107	-132	-79	-153	31
255	-154	-72	-279	31
385	-90	89	-186	31
297	-9	130	-136	31
90	37	116	-72	31
98	37	264	-132	31
-4	26	259	46	31
-23	17	83	14	31
-10	31	-86	-94	31
14	37	-200	-247	31
-52	44	-287	-151	31
-325	36	-299	-12	31
-141	19	-33	-86	31
81	10	240	-4	31
-41	-21	120	-80	31
271	-37	23	-75	31
392	-42	46	-77	31
16	-8	37	-62	31
-84	2	64	26	31
-122	-21	19	122	31
-103	23	-13	122	31
-108	42	-45	59	31
-67	26	-16	148	31
-42	-15	41	109	31
-14	-22	108	44	31
26	11	175	19	31
-5	-26	99	192	31
91	-37	-74	295	31
-4	1	-209	-222	31
8	31	-112	-530	31
17	21	-52	-136	31
-19	-4	-67	-268	31
132	-7	77	-445	31
-4	-5	61	116	31
-243	19	-107	543	31
-97	25	-175	885	31
19	24	-239	612	31
-189	28	-172	-185	31
-33	30	-1	-359	31
135	30	5	-256	31
77	14	2	-131	31
114	11	24	5	31
-7	9	2	36	31
-2	9	14	160	31
31	-2	74	-6	31
-29	-4	162	-213	31
-156	3	112	-112	31
-275	0	28	-69	31
-27	36	54	-18	31
194	81	27	27	31
168	110	-74	-77	31
268	90	-25	-86	31
82	24	149	-40	31
-172	-84	133	-26	31
-7	-194	47	-4	31
-79	-175	37	4	31
-99	-36	47	-37	31
31	59	112	-232	31
-9	52	214	-420	31
92	32	280	-360	31
135	-33	169	166	31
19	-116	-14	877	31
2	-68	-244	1286	31
41	-12	-486	705	31
29	7	-406	-270	31
23	42	-84	-357	31
-19	7	-47	-70	31
-49	-29	-155	222	31
-81	-38	-19	279	31
-119	0	98	70	31
24	54	71	-98	31
70	25	23	-390	31
-30	24	76	-445	31
-71	32	195	-330	31
-74	29	238	-87	31
61	39	119	199	31
61	30	-32	16	31
55	34	-99	-111	31
195	28	-65	-146	31
160	16	12	-154	31
104	16	-1	-29	31
87	19	-16	17	31
30	15	-21	118	31
-8	11	20	139	31
-41	13	27	11	31
-35	1	5	-26	31
-67	-3	-76	-119	31
-173	-8	-181	-202	31
-120	-17	-172	-77	31
9	-1	-59	-59	31
-90	24	174	149	31
-120	21	222	261	31
28	6	204	-36	31
91	11	252	-47	31
92	11	143	63	31
-24	11	-10	14	31
74	-1	-126	-64	31
137	-7	-219	-39	31
-249	16	-204	49	31
-394	14	-199	-151	31
-33	-8	-154	-239	31
-76	-36	-22	-121	31
-512	-21	13	58	31
-74	16	51	504	31
174	6	27	453	31
-550	-1	21	45	31
-705	-6	62	-22	31
20	8	83	-60	31
696	61	199	-62	31
760	122	191	-79	31
671	127	102	-48	31
626	61	24	75	31
343	-37	-47	39	31
199	-157	11	87	31
187	-181	49	197	31
109	-140	-7	55	31
38	-85	-39	-61	31
-109	5	-48	-16	31
-141	48	-45	-182	31
-156	59	-30	-359	31
-120	37	-14	-265	31
41	4	9	108	31
-66	-1	11	457	31
-200	-5	21	498	31
-69	31	-31	202	31
46	61	-85	-165	31
13	19	-56	-23	31
45	-4	9	12	31
-124	19	91	-253	31
-400	12	107	-222	31
-194	6	77	-172	31
17	7	-20	-249	31
35	6	-141	-390	31
154	32	-126	-372	31
123	27	-13	-254	31
-44	24	72	-58	31
-112	29	133	192	31
-138	30	163	537	31
-182	61	184	653	31
-106	64	103	83	31
9	52	-82	-179	31
-67	-10	-119	151	31
-84	-100	-131	587	31
52	-87	-228	135	31
93	-61	-234	-503	31
174	-68	-39	-147	31
85	-36	112	-112	31
69	-10	91	125	31
177	9	233	673	31
-64	9	362	480	31
-232	-11	126	-187	31
-194	-12	-244	-339	31
17	9	-475	-335	31
-30	32	-561	-376	31
-17	19	-304	-154	31
138	6	105	-111	31
-90	14	310	50	31
2	0	243	19	31
87	-13	51	9	31
27	-2	44	81	31
106	9	82	112	31
125	22	116	49	31
160	27	144	-29	31
19	24	122	64	31
-11	10	91	42	31
53	-2	62	49	31
-41	12	74	2	31
-48	10	29	-17	31
-48	-10	-14	-91	31
-66	-4	-44	-209	31
-66	9	-87	-265	31
-61	3	-90	-102	31
-39	-6	-69	267	31
24	6	44	308	31
97	22	180	0	31
49	17	151	-275	31
-26	-2	86	-212	31
2	-7	47	14	31
39	-6	-97	314	31
-17	-1	-119	474	31
-9	32	0	340	31
73	87	29	385	31
76	114	-58	392	31
97	76	-141	-16	31
34	19	-136	-340	31
-179	-81	-81	-275	31
-465	-164	-5	-129	31
-478	-130	7	-152	31
55	-60	8	-249	31
172	-28	-34	-267	31
-129	-39	-19	-145	31
34	-17	14	97	31
289	5	-27	240	31
84	9	-36	122	31
-302	37	-77	147	31
-26	37	-2	122	31
415	32	31	-306	31
350	17	-17	-439	31
242	8	56	-344	31
117	21	104	-155	31
58	12	100	277	31
44	23	104	660	31
-38	26	160	412	31
-21	-1	134	-22	31
-137	1	50	26	31
-215	9	-7	-300	31
-44	-4	-207	-385	31
-19	7	-323	187	31
22	16	-175	469	31
34	-3	36	76	31
18	17	82	-264	31
117	26	51	-102	31
28	-2	50	-146	31
1	-14	46	-136	31
73	32	153	-83	31
-37	85	194	-94	31
-192	68	122	-118	31
-121	44	43	-156	31
-39	-21	-70	-108	31
-152	-101	-103	-158	31
-146	-85	5	74	31
-127	-45	86	397	31
-29	-17	9	279	31
122	21	-102	-4	31
33	-1	-212	71	31
17	-24	-142	79	31
86	-7	107	-88	31
121	3	194	16	31
131	15	106	-16	31
126	10	-94	-171	31
44	16	-240	146	31
-7	26	-221	662	31
47	47	-96	502	31
3	94	-24	-26	31
-90	134	-6	16	31
-108	118	-2	4	31
21	41	-1	-259	31
-30	-28	164	-348	31
-189	-119	249	-302	31
-249	-155	189	13	31
-322	-92	72	256	31
-77	-17	-81	438	31
182	19	-149	82	31
144	1	-70	-207	31
325	1	104	-78	31
458	-7	207	-368	31
407	1	201	-422	31
248	27	71	-235	31
-85	32	-102	34	31
-77	33	-234	473	31
-104	12	-264	801	31
-149	0	-156	186	31
-39	17	-53	-596	31
-122	21	-12	-418	31
-218	8	78	-300	31
-176	4	114	-49	31
-60	1	124	329	31
-118	9	120	186	31
-72	20	67	-229	31
166	29	92	-166	31
192	36	90	70	31
-11	13	87	-208	31
-157	-1	87	-414	31
-250	-16	82	-434	31
-433	2	132	-235	31
-465	24	117	130	31
-14	-2	-20	650	31
455	-12	-124	771	31
441	3	-177	289	31
274	11	-218	74	31
103	-2	-156	0	31
26	-15	-111	-10	31
93	-15	-142	-37	31
167	2	-137	-97	31
77	26	-76	-118	31
-28	21	-32	-147	31
46	-6	-4	-62	31
99	-22	41	71	31
111	-39	73	172	31
121	-56	135	46	31
120	-40	250	-110	31
67	-21	397	-124	31
-79	-17	392	-132	31
-244	7	114	57	31
-329	4	-130	420	31
-256	4	-222	369	31
8	41	-324	-34	31
159	56	-327	-358	31
53	33	-193	-465	31
16	-12	-37	-378	31
-42	-27	52	-350	31
23	-24	49	-139	31
101	-11	52	374	31
38	-2	99	657	31
31	14	154	261	31
9	23	85	-91	31
92	2	16	119	31
42	6	-96	430	31
-38	4	-269	725	31
-124	3	-234	365	31
-194	31	-30	43	31
-89	71	150	-165	31
-126	88	141	-540	31
-145	79	151	-265	31
-283	57	110	-289	31
-300	-18	29	-242	31
107	-98	47	-27	31
125	-98	-21	-53	31
-24	-62	-53	-24	31
152	-41	-49	-153	31
171	-16	-38	-188	31
204	-9	21	-215	31
162	19	96	20	31
32	101	126	255	31
-61	132	92	106	31
-44	87	64	4	31
186	8	36	135	31
-51	-89	-7	105	31
-132	-150	-24	36	31
-20	-104	-14	79	31
-89	-19	-4	-56	31
-26	9	17	-77	31
-80	7	35	-108	31
-31	7	6	-11	31
6	11	-92	34	31
31	10	-126	-54	31
106	17	-26	-73	31
64	11	74	-48	31
16	-3	116	96	31
64	9	129	45	31
89	9	98	8	31
46	14	32	-2	31
70	27	-81	61	31
4	24	-195	-14	31
-25	34	-161	-309	31
-39	32	-82	-59	31
-28	12	-2	279	31
-16	12	159	224	31
-33	33	252	23	31
109	21	74	-62	31
-41	-31	-125	22	31
-146	-36	-124	-44	31
44	-2	-174	-51	31
45	1	-132	-31	31
135	9	-13	7	31
146	7	-31	53	31
18	12	-41	22	31
47	39	24	46	31
34	32	153	31	31
-57	31	360	21	31
-240	41	460	2	31
-344	1	326	-4	31
-274	-74	60	6	31
-62	-95	-239	47	31
205	-20	-430	118	31
215	29	-500	138	31
85	49	-436	-1	31
82	69	-321	-120	31
64	17	-126	-101	31
85	-21	29	-152	31
92	-27	57	-44	31
13	-17	91	101	31
72	-1	36	72	31
132	-16	57	49	31
64	4	74	89	31
-79	24	127	105	31
-111	69	180	19	31
-50	125	149	-99	31
-19	76	171	-177	31
2	9	143	-166	31
-82	-86	151	-26	31
-104	-167	89	283	31
-102	-126	24	497	31
-50	-36	35	180	31
63	14	9	-71	31
117	9	12	39	31
164	19	1	-37	31
-14	28	-16	-67	31
37	17	-18	-266	31
174	16	24	-485	31
-9	-2	9	-412	31
-14	-6	-56	-197	31
-1	4	1	299	31
-28	-12	2	970	31
21	-6	-159	1324	31
-38	22	-302	591	31
-89	41	-180	-641	31
-92	36	64	-913	31
-131	27	62	-623	31
-299	32	123	-627	31
-285	11	226	-227	31
208	-5	126	155	31
309	-4	116	65	31
98	6	208	-166	31
49	6	82	-157	31
-5	-7	-170	80	31
126	0	-290	61	31
104	1	-223	50	31
41	1	-159	-26	31
16	9	-152	57	31
-71	4	-31	157	31
-91	7	36	144	31
-99	10	91	281	31
-57	32	98	187	31
-91	69	57	-11	31
-65	63	72	-9	31
-34	29	114	-21	31
-9	-7	199	-7	31
54	-94	161	101	31
39	-150	122	74	31
71	-97	61	-74	31
79	-51	-109	-176	31
34	-13	-174	-182	31
24	23	-151	-189	31
45	18	-129	29	31
23	16	-111	260	31
5	6	-74	79	31
-32	13	-29	-197	31
-103	30	57	-251	31
-58	26	159	-61	31
-6	27	185	284	31
25	34	94	280	31
-24	46	51	212	31
-59	61	76	658	31
50	56	-58	405	31
67	31	-192	-147	31
96	-5	-199	49	31
101	-34	-158	39	31
36	-46	-189	-126	31
62	-29	-156	-385	31
58	-4	-5	-472	31
17	-17	62	-186	31
-12	-10	101	-41	31
-5	28	111	161	31
22	21	134	146	31
-181	27	200	-87	31
-255	19	203	-81	31
-97	16	103	37	31
-106	18	35	-4	31
-52	-7	1	46	31
-50	-5	-85	40	31
12	-12	-107	-172	31
137	6	-39	-302	31
68	24	52	-204	31
74	11	72	30	31
79	-1	34	62	31
110	-7	35	35	31
92	6	57	16	31
-44	-2	38	37	31
-91	12	26	62	31
-79	13	40	50	31
-136	4	62	56	31
-160	12	103	42	31
-87	-4	91	33	31
-82	-3	86	-28	31
-24	-2	112	-51	31
16	6	33	-92	31
-6	6	-101	-271	31
29	-26	-127	-366	31
55	1	-124	-82	31
124	84	-245	172	31
115	102	-310	194	31
1	55	-165	540	31
-18	-7	-5	530	31
60	-117	114	223	31
176	-150	9	260	31
119	-67	-106	-91	31
-72	-19	-54	6	31
-114	-17	-92	194	31
-60	-1	134	-28	31
-76	21	345	-120	31
-66	23	202	-254	31
-7	17	17	-92	31
22	0	-190	-101	31
76	-1	-338	-22	31
81	14	-307	112	31
66	9	-80	111	31
81	12	108	31	31
109	14	105	-24	31
97	16	52	-12	31
118	51	82	-168	31
131	88	140	-150	31
-128	110	97	-181	31
-117	96	47	-140	31
91	42	25	-67	31
-22	-43	41	-12	31
-55	-151	72	39	31
-68	-124	87	0	31
-116	-34	75	34	31
-35	-35	68	20	31
-6	-11	78	21	31
37	0	37	29	31
153	4	26	44	31
201	13	24	26	31
49	-1	-4	-73	31
-126	15	-31	-197	31
-163	6	-47	-219	31
-335	11	-81	-180	31
-449	3	-51	-74	31
-271	2	72	240	31
264	14	72	189	31
556	5	15	-152	31
175	16	-13	-122	31
77	-1	-43	-169	31
97	-8	2	-132	31
-18	-2	58	231	31
71	-2	93	387	31
80	8	128	221	31
114	22	121	59	31
123	50	-2	595	31
104	61	-237	900	31
92	46	-357	489	31
-27	4	-324	350	31
-7	-4	-155	122	31
71	27	81	-270	31
45	13	60	-260	31
-19	9	14	-264	31
-164	12	-81	-137	31
-171	0	-204	-78	31
-119	-5	-212	-537	31
-165	-12	-137	-562	31
-86	-1	34	-272	31
-37	2	99	-105	31
-43	-9	200	-27	31
-42	-2	297	-80	31
0	3	284	-46	31
64	7	146	-18	31
75	-4	56	-9	31
106	-15	72	4	31
93	-11	36	12	31
49	-6	43	30	31
-3	-16	21	26	31
-7	-9	19	34	31
-80	14	21	41	31
-111	40	15	51	31
-69	122	36	45	31
-89	133	5	26	31
-104	46	-2	21	31
-132	-25	-1	29	31
-59	-120	-2	29	31
-39	-163	-4	26	31
-19	-96	-21	27	31
56	-37	-31	29	31
24	-19	-21	34	31
3	-39	-16	22	31
-11	-72	-22	21	31
-6	-62	-4	-2	31
-19	-36	8	-42	31
-60	-4	14	-30	31
-66	27	11	5	31
-21	55	4	106	31
19	112	-41	226	31
-76	154	-72	129	31
-172	112	-32	1	31
-50	34	-13	36	31
18	2	6	21	31
-8	-1	4	-58	31
111	9	-27	-119	31
122	24	-27	-75	31
97	15	-44	-28	31
175	-17	-36	-55	31
197	-45	3	-4	31
232	-21	21	12	31
147	-2	29	21	31
-35	0	32	9	31
2	9	74	-1	31
-3	2	211	-8	31
-67	0	314	-147	31
-82	1	237	-270	31
-146	16	134	-447	31
-89	43	114	-467	31
-66	39	10	-11	31
-47	27	-395	575	31
-15	-4	-668	992	31
14	-84	-470	1206	31
51	-96	-382	749	31
2	-36	-264	-232	31
137	-15	3	-504	31
227	10	-39	-442	31
87	2	-39	-274	31
9	0	211	-12	31
59	29	341	104	31
81	16	220	-114	31
30	17	109	-402	31
-89	17	90	-80	31
-204	23	38	-142	31
-34	30	-14	-272	31
3	-14	-17	-390	31
-156	-40	27	-468	31
-102	-6	37	-299	31
-14	21	48	-20	31
8	14	104	577	31
81	6	137	645	31
142	11	112	314	31
62	25	65	202	31
7	22	65	338	31
7	14	43	161	31
46	-6	17	-14	31
74	-4	-1	33	31
-57	20	-31	-74	31
-77	16	-20	-74	31
27	17	-2	-96	31
-71	8	-14	-64	31
-147	4	-30	-63	31
-59	27	-1	-56	31
-7	39	2	-30	31
-24	34	-2	-54	31
-1	8	0	-45	31
76	-31	-20	-77	31
46	-66	-17	-42	31
52	-79	-4	-31	31
108	-55	17	-22	31
81	-14	42	3	31
77	0	51	3	31
12	31	47	-64	31
-87	41	101	-85	31
-100	24	138	24	31
-71	30	64	2	31
-39	11	105	-15	31
-62	9	203	-13	31
-62	-4	57	-308	31
-23	-11	-164	-598	31
91	9	-269	-622	31
142	9	-300	2	31
-4	12	-362	1264	31
89	4	-362	1420	31
126	19	-126	384	31
152	28	81	-39	31
244	16	100	292	31
-49	14	34	268	31
-36	2	-37	-144	31
125	-7	-21	-518	31
-14	-3	120	-750	31
-14	17	303	-587	31
-61	62	211	-201	31
-71	91	-44	1	31
-57	62	-131	17	31
-116	16	-178	87	31
31	-76	-113	-189	31
32	-172	98	-343	31
-184	-140	93	-164	31
-159	-56	-4	-69	31
32	2	14	488	31
106	22	14	825	31
169	27	32	543	31
28	35	12	47	31
-43	24	-34	-169	31
64	-5	-1	-22	31
-65	-3	56	-95	31
-95	35	103	-81	31
-49	34	93	100	31
-242	27	-22	117	31
-646	29	-8	103	31
-722	48	124	117	31
-383	77	141	-136	31
-40	63	87	-442	31
277	39	135	-479	31
533	-34	202	-350	31
630	-109	30	-3	31
380	-98	-159	369	31
309	-66	-64	214	31
289	-52	114	-129	31
127	-23	152	-202	31
172	10	62	-131	31
44	14	-65	396	31
-9	27	-215	870	31
-75	34	-358	626	31
-212	31	-180	-57	31
-43	22	252	-322	31
-7	15	352	-448	31
-88	27	185	-434	31
-69	16	-59	237	31
-94	17	-412	157	31
-73	17	-477	-172	31
-4	8	-187	94	31
-77	5	16	-27	31
-4	-4	-11	-347	31
137	3	-46	-475	31
-86	-6	-124	-121	31
-47	8	-111	204	31
43	28	100	-47	31
-87	11	243	-161	31
-75	-1	242	-96	31
-94	-14	200	154	31
-81	-15	126	165	31
-170	-9	41	-234	31
-140	-3	40	-467	31
5	-2	12	-225	31
71	-10	-57	503	31
22	-1	-112	761	31
-1	16	-46	140	31
167	17	32	-383	31
184	-5	-52	-377	31
190	-15	11	-120	31
86	-7	177	522	31
-36	-11	297	936	31
62	-12	326	813	31
94	8	172	476	31
149	6	-44	337	31
-16	4	-272	316	31
-218	36	-491	-361	31
-122	41	-467	-901	31
-138	28	-170	-596	31
-142	35	-69	205	31
-157	37	-70	67	31
-121	22	-34	-330	31
50	39	-109	-171	31
190	69	-36	-335	31
176	42	114	-249	31
-71	-5	141	-199	31
-106	-89	227	-72	31
19	-170	357	277	31
39	-124	328	399	31
-95	-22	131	89	31
-32	18	-122	-399	31
207	14	-185	-647	31
160	7	-85	-673	31
117	-11	54	-214	31
96	-29	189	317	31
102	-8	225	405	31
59	21	173	684	31
-122	16	55	573	31
-145	29	-45	-56	31
-23	44	-85	97	31
78	30	-97	1	31
122	39	-36	-157	31
32	39	-52	-58	31
-96	26	-46	-129	31
53	7	50	24	31
91	6	31	76	31
22	12	-22	141	31
32	-11	-49	-101	31
-121	-4	-24	-105	31
-137	21	-41	7	31
-88	3	47	-321	31
-121	-57	109	-365	31
-145	-42	-91	-317	31
-80	3	-279	-127	31
30	-11	-372	380	31
11	8	-300	475	31
104	27	-16	296	31
159	43	194	331	31
19	48	96	187	31
-11	7	-64	187	31
124	13	-141	-131	31
186	25	11	-304	31
64	22	216	425	31
-128	31	267	325	31
-317	24	262	-119	31
-492	2	128	-74	31
-327	-20	79	107	31
184	4	80	399	31
290	36	-54	213	31
172	24	-179	-559	31
277	14	-6	-688	31
181	12	152	-173	31
-56	4	23	-247	31
-47	1	-79	-165	31
37	11	-14	33	31
44	26	15	8	31
50	32	6	65	31
80	20	37	18	31
52	10	-69	-6	31
37	-36	-131	-89	31
-66	-102	-81	-137	31
-479	-74	50	-191	31
-397	-31	165	-194	31
-45	-42	157	-61	31
-230	-46	143	284	31
-30	-37	48	577	31
279	-9	-126	94	31
197	-4	-190	-414	31
254	-6	-245	-311	31
163	6	-204	2	31
-6	-9	14	522	31
58	2	204	715	31
209	27	263	239	31
197	41	238	-304	31
100	62	132	-82	31
74	47	-187	352	31
-11	76	-279	254	31
-181	152	-239	88	31
-85	87	-216	-139	31
131	-3	-51	-332	31
-121	-66	140	-259	31
-300	-150	176	-319	31
-88	-111	71	111	31
-132	-19	149	448	31
-245	46	194	49	31
-101	21	194	-4	31
247	-32	61	202	31
294	-21	-296	354	31
139	-28	-392	-259	31
-11	-15	-135	-452	31
-272	9	-16	217	31
13	12	-77	156	31
278	10	-57	-132	31
190	-1	-25	-498	31
122	15	12	-650	31
96	36	45	-485	31
-34	37	117	-316	31
-135	43	124	328	31
-53	50	115	713	31
-121	49	82	270	31
-79	31	66	-183	31
-19	-3	81	-106	31
-39	-17	24	74	31
-15	-1	-25	380	31
46	6	-98	454	31
76	-2	83	417	31
93	4	280	216	31
205	6	242	-227	31
16	-3	35	-94	31
-189	8	-165	-306	31
-124	26	-200	-420	31
-189	20	-174	-194	31
-357	-11	-77	-284	31
-274	-21	-62	-155	31
200	16	10	-117	31
313	43	124	-194	31
62	39	153	25	31
-62	5	186	208	31
-149	-32	183	27	31
81	-38	120	91	31
213	-39	41	473	31
76	-21	20	811	31
202	7	-175	768	31
300	-9	-405	493	31
31	31	-225	308	31
-155	132	81	4	31
-186	152	104	-142	31
-413	118	12	-287	31
-375	11	39	-184	31
-70	-199	-61	-309	31
-41	-273	-159	-635	31
-72	-144	-107	-447	31
-6	-45	-74	-379	31
-78	-9	39	-188	31
-47	-1	101	-62	31
286	-7	85	-120	31
306	8	30	-120	31
262	0	21	-109	31
302	-15	102	-69	31
143	-18	117	-29	31
-209	-5	117	127	31
-32	32	122	290	31
397	49	62	219	31
-61	25	-56	-176	31
28	11	-120	-337	31
314	42	-48	-199	31
44	63	-17	313	31
-24	66	-39	771	31
-104	27	-121	482	31
-84	1	-137	-2	31
-68	22	24	-441	31
-54	22	22	-417	31
-86	29	28	-223	31
-35	22	176	-143	31
-148	35	185	373	31
-485	44	-17	417	31
-297	28	2	109	31
166	9	116	59	31
421	-45	-94	37	31
320	-36	-232	110	31
161	24	-243	144	31
138	49	-274	92	31
-179	52	-165	-252	31
-357	21	-26	-137	31
-130	-11	34	262	31
-29	-38	61	59	31
57	-56	42	-346	31
131	-22	71	-702	31
175	2	109	-785	31
188	-22	177	-860	31
62	-28	197	-295	31
-189	-25	143	1082	31
-113	-13	111	2159	31
205	4	-42	1374	31
83	5	-101	-388	31
59	8	-42	-397	31
79	-18	-21	-183	31
21	-19	38	-147	31
-74	9	74	7	31
-197	34	139	-101	31
-45	47	180	11	31
-113	22	188	-117	31
-242	15	144	-104	31
-186	-7	47	-117	31
-98	-27	-22	67	31
-72	-8	-11	42	31
-4	-2	-24	-333	31
106	4	-188	2	31
94	8	-345	317	31
151	12	-521	-75	31
159	-7	-479	-460	31
188	-16	17	-254	31
171	11	452	-66	31
107	17	438	-114	31
32	25	247	-285	31
-55	14	-56	-487	31
-35	-18	-318	-381	31
-286	-42	-382	-301	31
-252	-26	-265	131	31
33	3	-89	695	31
66	29	32	622	31
73	101	144	337	31
-123	114	109	329	31
-163	66	156	370	31
40	14	167	212	31
71	-86	129	-42	31
-263	-160	169	-148	31
-276	-120	102	-49	31
235	-36	80	-109	31
156	22	71	-51	31
-90	25	52	-9	31
6	21	34	-22	31
1	18	-53	-39	31
-57	1	-66	-137	31
-29	20	6	-157	31
-91	31	-3	-198	31
-124	13	-12	-207	31
58	7	34	-49	31
44	11	34	464	31
1	18	-20	660	31
153	12	-112	41	31
112	25	-46	-484	31
56	33	87	-245	31
167	26	77	63	31
98	37	42	47	31
64	52	-41	-33	31
72	71	-105	97	31
-16	76	-179	229	31
-30	59	-264	7	31
-98	16	-123	39	31
-64	-46	12	-15	31
-85	-82	92	-177	31
-85	-99	306	-239	31
-20	-58	472	-287	31
-43	-20	314	-128	31
14	-30	32	162	31
23	-10	-169	472	31
72	-15	-506	97	31
43	-3	-613	-213	31
21	31	-277	58	31
101	38	36	331	31
72	41	189	221	31
95	11	232	-35	31
22	-10	146	21	31
-63	-21	190	-156	31
-37	-14	246	-167	31
-88	-2	149	-218	31
-90	15	64	-332	31
-34	35	-5	90	31
-21	22	-13	527	31
-72	14	-32	259	31
-81	-2	1	-172	31
-89	-14	-19	-117	31
-1	-32	-101	-433	31
130	-37	17	-480	31
65	-14	85	-291	31
74	-12	97	-114	31
73	17	135	640	31
61	28	-10	905	31
76	2	-252	327	31
11	-1	-355	143	31
-72	21	-284	229	31
-177	21	-27	-335	31
-297	-12	278	-450	31
-285	-7	315	-172	31
34	16	112	7	31
220	31	-85	106	31
99	16	-248	37	31
-19	4	-405	82	31
-147	14	-380	-267	31
-119	1	-174	-758	31
140	-9	77	-611	31
233	-25	242	265	31
214	-16	320	1079	31
275	24	477	966	31
194	33	482	351	31
81	4	255	-292	31
2	-17	-63	-670	31
-89	1	-307	-252	31
6	10	-353	153	31
-43	21	-374	144	31
-108	42	-250	-41	31
-9	26	-92	-119	31
-159	-4	127	-109	31
-263	-27	365	-115	31
-190	-28	243	10	31
-232	-4	31	-244	31
-94	2	-67	-410	31
213	-4	-86	-423	31
337	22	9	-264	31
280	16	96	349	31
201	18	166	907	31
122	99	130	786	31
26	96	-6	158	31
44	27	-89	-41	31
-64	-39	-106	11	31
-136	-134	-23	87	31
-103	-106	91	47	31
-83	-7	189	-317	31
-44	17	131	-452	31
-95	12	71	-221	31
-82	-17	84	74	31
-49	-52	-34	464	31
-76	-44	-170	599	31
63	22	-284	16	31
247	35	-55	-440	31
180	6	256	-214	31
34	15	309	-207	31
-16	-8	214	-124	31
66	13	-54	75	31
31	22	-323	-234	31
-39	2	-669	-364	31
-61	58	-624	-265	31
-139	63	-205	-58	31
-133	1	26	119	31
-98	-44	99	1	31
-40	-41	152	82	31
-10	14	239	399	31
66	49	240	385	31
83	8	264	231	31
65	-6	341	365	31
119	36	222	145	31
50	29	-41	-468	31
76	13	24	-700	31
77	17	127	-513	31
-14	7	-32	22	31
-31	-4	-66	776	31
-33	-21	-233	667	31
-43	-3	-316	59	31
-64	14	-90	24	31
-29	-3	18	11	31
-64	2	29	-4	31
-130	14	108	27	31
-139	11	119	-92	31
-51	34	31	-384	31
-22	44	38	-272	31
-242	36	21	69	31
-489	27	-31	9	31
-148	-36	-41	-42	31
472	-137	-38	-95	31
478	-149	-23	-26	31
303	-63	26	56	31
207	5	81	77	31
105	39	156	149	31
37	26	267	69	31
-36	4	309	-45	31
-71	20	198	-269	31
-52	23	50	-567	31
-57	34	29	-610	31
-49	29	-39	-167	31
34	25	-170	473	31
-29	28	-348	550	31
-82	17	-445	82	31
-30	15	-470	412	31
39	4	-455	1049	31
51	9	-195	593	31
71	6	44	117	31
144	-3	222	-203	31
41	18	254	-492	31
-41	19	172	-395	31
11	0	127	-385	31
-30	2	52	-140	31
-136	7	94	255	31
-93	-9	113	300	31
-46	-1	48	19	31
-54	22	9	-217	31
-53	17	-3	-307	31
-56	-6	-131	-345	31
-5	-15	-142	-444	31
39	-8	52	-384	31
72	-2	110	-31	31
57	4	52	343	31
17	-21	-68	700	31
17	-54	-99	653	31
67	-40	21	36	31
31	-12	136	-216	31
39	16	106	-11	31
-32	22	-102	210	31
-179	12	-188	358	31
9	11	-81	-59	31
37	1	86	-57	31
-82	18	180	-342	31
-137	52	159	-1044	31
-112	61	81	-585	31
16	86	34	-96	31
-48	144	-31	215	31
17	131	-96	460	31
78	48	82	690	31
101	-79	236	472	31
145	-215	432	-252	31
14	-202	496	-384	31
45	-111	107	-632	31
129	-33	-255	-152	31
41	2	-496	890	31
-7	1	-653	816	31
-124	6	-577	354	31
-280	6	-182	322	31
-77	38	110	165	31
144	47	73	-146	31
90	53	104	-232	31
-110	62	184	-397	31
-141	43	40	-286	31
59	39	31	-96	31
141	21	169	55	31
216	-2	85	-1	31
125	-31	116	-183	31
73	-27	80	-400	31
-2	6	41	-541	31
-239	24	-17	-194	31
-47	28	-209	242	31
223	11	-262	422	31
235	10	-207	-9	31
32	22	-11	-176	31
-179	19	71	-181	31
-363	1	170	-126	31
-403	-14	243	167	31
35	0	179	201	31
250	37	139	197	31
139	41	75	19	31
183	21	99	149	31
220	31	97	136	31
96	26	72	-53	31
-33	-37	-29	-49	31
82	-92	-117	-243	31
62	-116	-76	-211	31
21	-81	-49	1	31
96	-17	-24	-83	31
14	-22	-37	-388	31
-152	7	-37	-350	31
-337	54	34	24	31
-128	20	109	560	31
66	-1	139	415	31
-112	12	235	-3	31
-49	42	151	261	31
-40	39	-176	442	31
-111	16	-302	583	31
79	29	-413	577	31
73	3	-397	419	31
34	-5	-71	-7	31
64	-18	91	-422	31
-58	-33	94	-597	31
-47	8	295	-358	31
91	-5	214	384	31
81	-22	-109	116	31
-13	12	-96	-428	31
-52	79	-91	-16	31
25	155	-107	106	31
65	130	-177	-190	31
-51	81	-160	-184	31
-16	18	56	-167	31
14	-142	89	-46	31
-21	-208	184	-36	31
26	-126	283	-43	31
51	-4	162	-49	31
83	29	81	-181	31
64	0	125	-128	31
93	13	237	-175	31
92	-4	285	-272	31
66	-6	180	-47	31
4	11	76	147	31
-66	3	-147	113	31
-64	3	-335	359	31
-123	1	-314	390	31
-88	3	-312	61	31
-103	6	-227	124	31
-114	34	-128	259	31
-36	50	33	-65	31
-45	6	136	-307	31
-27	-39	129	-240	31
-5	-19	64	-71	31
20	5	-162	148	31
4	7	-236	-72	31
30	23	-202	9	31
143	12	-36	319	31
163	9	275	83	31
96	14	456	-186	31
-41	7	393	-193	31
-84	12	164	-11	31
-76	16	32	-186	31
-30	24	-7	-66	31
42	48	-155	116	31
-81	64	-195	-404	31
-106	38	-252	-90	31
-87	2	-348	221	31
-69	-33	-161	84	31
-51	-58	44	171	31
2	-54	71	322	31
134	-32	9	610	31
46	11	53	258	31
-17	31	131	-5	31
-52	33	154	-82	31
-127	14	121	-159	31
-31	-9	117	-87	31
109	0	131	-270	31
99	9	59	-362	31
49	21	59	-220	31
-1	-1	44	139	31
-64	-26	67	380	31
14	-18	165	54	31
41	-14	291	-127	31
10	-4	319	158	31
-28	22	70	287	31
-50	57	-246	187	31
65	63	-515	-42	31
74	68	-546	-398	31
89	50	-254	-141	31
136	-60	-24	477	31
103	-113	-61	-160	31
109	-66	-50	-565	31
101	-32	165	77	31
67	-3	130	288	31
-275	43	-48	309	31
-579	56	-78	186	31
-269	41	-79	-268	31
-111	3	21	-382	31
-173	-61	47	-220	31
104	-86	-1	-212	31
414	-71	78	82	31
302	-42	191	383	31
171	25	147	357	31
207	47	-31	98	31
-67	42	-157	-260	31
46	38	-116	-214	31
173	41	-30	-120	31
41	99	3	-97	31
160	112	27	-53	31
39	86	26	-54	31
0	39	26	21	31
2	-37	-3	4	31
-61	-141	-30	30	31
-33	-168	8	1	31
-92	-75	93	-114	31
-117	-12	140	-237	31
-65	9	144	-249	31
12	11	127	-181	31
-57	26	104	14	31
-90	26	54	579	31
77	9	4	733	31
237	28	-14	221	31
37	36	-42	43	31
-64	27	-76	127	31
49	8	-152	-130	31
-62	6	-102	-309	31
-52	20	125	-351	31
-87	24	289	-367	31
-76	19	175	11	31
-42	11	-17	517	31
-101	19	-142	578	31
-71	13	-167	151	31
-49	9	24	-97	31
9	14	165	-116	31
-17	-1	84	-150	31
21	-16	29	-11	31
32	4	97	52	31
3	20	74	-2	31
124	-2	66	-77	31
111	-15	15	152	31
26	-19	-257	315	31
-6	0	-487	-171	31
1	15	-491	-475	31
29	7	-305	-250	31
42	8	-47	123	31
-125	-8	174	404	31
-410	-11	307	327	31
-327	9	244	262	31
-9	19	67	-10	31
116	14	-80	-141	31
159	14	-183	112	31
210	33	-151	-342	31
176	20	-63	-386	31
111	-15	103	-104	31
59	-23	139	169	31
18	9	16	106	31
97	20	28	-470	31
194	5	77	-191	31
96	20	99	-68	31
-119	27	96	24	31
-374	21	82	94	31
-226	23	27	-40	31
151	-29	-79	29	31
106	-129	-111	-33	31
-162	-134	-100	34	31
-87	-63	-84	133	31
140	37	19	210	31
29	144	157	51	31
-2	101	175	-24	31
55	3	126	16	31
55	-67	129	-8	31
34	-142	60	64	31
42	-97	-30	68	31
130	-15	19	111	31
53	26	126	124	31
-104	31	195	141	31
-266	41	131	4	31
-309	58	-32	-337	31
-147	18	-180	-419	31
62	20	-232	-257	31
39	33	-120	-107	31
-12	27	33	232	31
102	23	36	134	31
43	14	47	-197	31
33	7	29	140	31
125	1	-104	275	31
249	10	-44	404	31
227	26	-6	595	31
-100	42	-110	291	31
-51	41	-129	-83	31
121	28	-146	-263	31
5	6	-137	-239	31
1	-18	-81	-156	31
-43	11	74	-219	31
-172	9	239	-384	31
-136	-19	163	241	31
-100	-4	66	838	31
-119	2	132	265	31
-52	9	155	-103	31
-6	10	5	-49	31
21	12	-124	-227	31
1	13	-97	-464	31
31	-26	-56	-713	31
105	-74	-90	-870	31
73	-76	-1	-672	31
146	-34	26	-109	31
131	8	-69	603	31
10	55	-72	1511	31
-38	59	-29	1302	31
-99	39	-27	170	31
-65	40	-50	-390	31
-66	61	54	-322	31
-118	54	81	-3	31
-58	26	46	1	31
-21	7	-21	-44	31
-174	11	-94	-106	31
-264	51	12	-100	31
-79	42	106	-127	31
140	-14	185	-142	31
388	-36	220	-94	31
433	2	201	-139	31
234	52	180	-69	31
105	7	111	-127	31
59	-64	-42	-59	31
81	-104	-126	76	31
42	-179	-145	15	31
-92	-152	-285	-39	31
-124	-44	-161	129	31
-22	11	6	242	31
-41	31	-17	14	31
-86	11	14	-141	31
-79	-5	14	-68	31
-35	-4	33	143	31
-16	15	61	202	31
-24	29	77	66	31
125	16	57	120	31
129	26	11	199	31
59	71	-46	-52	31
76	131	-12	-10	31
86	129	111	33	31
51	67	168	-71	31
4	-26	149	253	31
-66	-128	-64	98	31
-161	-115	-245	-167	31
-131	-61	-245	-304	31
-104	-4	-222	-385	31
-151	30	-96	-226	31
-197	-9	96	114	31
-126	12	127	269	31
-103	14	66	16	31
-174	1	9	-61	31
-99	23	-54	-345	31
220	14	-95	-405	31
183	7	-221	211	31
-161	11	-192	345	31
209	35	-70	91	31
331	42	-17	-3	31
23	66	232	-226	31
57	52	421	-232	31
-222	-7	327	-325	31
-349	-14	117	-43	31
-82	14	45	558	31
115	48	33	493	31
118	45	22	191	31
25	3	65	196	31
125	-46	50	232	31
104	-31	37	-213	31
99	-25	3	-620	31
82	-53	-19	-346	31
-44	-36	-4	133	31
-26	-21	-28	477	31
69	4	-29	845	31
109	27	-20	578	31
16	39	-143	-156	31
47	28	-253	-387	31
4	9	-155	-218	31
-76	25	-16	-145	31
-58	32	94	-143	31
-161	23	110	-52	31
-139	17	52	71	31
-97	15	43	198	31
-102	-9	56	108	31
-65	-31	95	-84	31
-39	-51	28	-181	31
2	-46	-86	-17	31
42	9	-145	154	31
87	21	-219	-196	31
135	64	-236	-344	31
118	102	-53	-307	31
48	44	192	-254	31
77	-22	294	-132	31
87	-137	311	-85	31
1	-199	152	153	31
-7	-108	47	309	31
2	2	-21	385	31
-75	41	-335	11	31
-120	36	-309	-347	31
-102	60	-74	284	31
-52	57	-200	330	31
11	23	-193	-111	31
22	24	-90	87	31
56	31	57	-115	31
75	29	338	-266	31
71	1	282	-560	31
156	-19	199	-674	31
180	-22	174	-288	31
85	-22	64	233	31
-22	2	51	832	31
-162	22	184	373	31
-260	21	175	377	31
-231	20	-44	440	31
-143	25	-133	-375	31
-201	23	-202	-12	31
-451	24	-184	543	31
-431	21	-58	294	31
-71	4	117	39	31
370	-2	197	-49	31
480	8	70	20	31
292	17	-141	84	31
-92	16	-309	-182	31
-172	18	-275	-470	31
391	49	-255	-287	31
482	93	-75	-71	31
385	85	189	289	31
270	37	207	472	31
83	-53	153	216	31
76	-146	117	-32	31
-63	-124	111	-229	31
-72	-61	-2	-237	31
-52	-41	-157	-239	31
-41	-16	13	-589	31
-124	9	247	-756	31
-161	7	86	-206	31
-72	10	-63	302	31
-37	7	-235	568	31
34	8	-428	354	31
86	16	-214	58	31
112	42	151	-13	31
-56	78	249	-253	31
-87	39	84	18	31
103	-29	-4	101	31
101	-27	-32	17	31
23	9	26	51	31
-96	-4	25	-5	31
-94	-14	-54	21	31
-58	15	-15	-59	31
-214	6	-9	-96	31
-176	-13	18	-196	31
-113	-4	95	-101	31
-100	42	235	153	31
-153	130	270	434	31
-175	185	169	497	31
186	131	106	110	31
167	8	8	-152	31
49	-114	-106	-107	31
259	-205	-175	58	31
182	-164	-79	184	31
84	-32	54	87	31
53	21	26	-70	31
-7	1	-37	-117	31
-48	-3	-47	-177	31
-156	15	-47	-142	31
-116	9	-116	-151	31
-76	-2	-100	-100	31
-91	11	-17	64	31
-84	13	72	67	31
-123	6	230	40	31
29	-4	184	-46	31
96	-15	45	-63	31
-61	-21	-56	-36	31
-65	-15	-244	-156	31
104	11	-279	-350	31
172	31	-46	-217	31
92	39	47	136	31
-4	29	-76	152	31
-82	11	-51	486	31
-33	9	-55	686	31
-66	18	26	290	31
-101	14	242	132	31
-60	11	314	62	31
-86	10	207	-64	31
-35	-3	9	-114	31
31	-16	-30	-12	31
48	-13	-122	41	31
48	-6	-175	-94	31
23	-2	-30	-221	31
-176	15	12	-361	31
-104	6	-46	-606	31
221	-6	-94	-847	31
187	8	16	-758	31
12	9	187	-86	31
38	21	245	1230	31
151	26	149	1930	31
4	23	-51	680	31
2	57	-186	-420	31
24	94	-204	-201	31
-42	74	-185	-289	31
11	15	-144	-350	31
-47	-57	-31	-328	31
79	-145	34	-295	31
101	-150	39	-179	31
-99	-99	19	-138	31
-72	-46	-93	625	31
-97	10	-140	920	31
-221	7	9	275	31
-50	12	196	-141	31
138	33	208	-177	31
222	41	49	-167	31
254	40	-44	-131	31
159	-10	-7	56	31
93	-27	29	189	31
6	79	-25	242	31
-72	169	-30	-102	31
-161	102	60	-440	31
-132	16	67	-253	31
-81	-109	34	-350	31
-125	-224	151	-613	31
-39	-150	249	-614	31
11	-32	72	-523	31
84	29	-99	22	31
117	68	-145	483	31
106	66	-147	475	31
85	44	-110	582	31
-44	2	-67	558	31
-24	-21	82	151	31
11	2	108	-123	31
-38	32	75	-67	31
-60	46	125	-44	31
-118	40	65	-66	31
-117	31	-6	-52	31
-106	15	-90	-1	31
-112	13	-98	11	31
-72	16	-26	-41	31
-27	-4	-28	-33	31
36	-11	16	-35	31
63	-11	96	-36	31
97	-24	64	-37	31
137	-25	-15	2	31
71	-9	-83	159	31
81	9	-81	202	31
162	29	8	64	31
62	27	146	-341	31
-36	25	237	-711	31
28	23	175	-412	31
23	11	43	6	31
-108	26	-130	260	31
-114	30	-155	572	31
-92	35	-44	808	31
-103	27	36	648	31
-2	8	27	258	31
12	14	-29	245	31
59	-7	-58	-33	31
83	-13	-199	-447	31
29	-21	-308	-420	31
131	-17	-305	-439	31
132	14	-119	-209	31
-6	24	-63	309	31
4	22	-139	497	31
32	19	56	280	31
-41	12	223	-30	31
-59	-6	378	-66	31
-40	-11	433	-14	31
-96	-12	320	-102	31
-187	27	117	-16	31
-122	155	-177	46	31
-81	230	-207	-49	31
-87	140	-77	-47	31
104	-21	-31	-111	31
102	-226	-55	-184	31
12	-350	-70	-271	31
29	-240	-100	-345	31
61	-107	-32	-137	31
152	-36	54	-89	31
46	-19	4	-161	31
-35	-28	6	-94	31
26	2	56	-21	31
-241	19	119	4	31
-380	57	130	12	31
-47	64	94	62	31
67	78	45	36	31
197	102	21	10	31
186	69	7	-46	31
37	12	-79	-117	31
157	-39	-125	-81	31
21	-35	-67	231	31
118	-26	4	369	31
226	9	18	108	31
122	23	-36	33	31
102	9	-1	-24	31
11	11	51	-78	31
64	7	-21	-59	31
44	18	-63	-91	31
-6	10	-52	-51	31
-26	29	-52	234	31
-89	57	-81	573	31
-212	34	31	526	31
-191	0	149	385	31
-78	6	92	13	31
-116	21	119	-494	31
-56	4	188	-319	31
-28	8	200	109	31
87	-14	190	192	31
74	-16	195	74	31
-84	5	225	-90	31
38	-6	255	-324	31
143	-17	114	-551	31
91	-21	-210	-517	31
22	-6	-414	-412	31
62	4	-533	-142	31
51	23	-511	271	31
-22	46	-225	501	31
-85	42	0	793	31
-68	34	-116	756	31
-64	23	-228	-54	31
-116	22	-298	-259	31
-19	9	-337	249	31
-22	20	11	-6	31
-6	14	230	-107	31
42	-26	225	-79	31
54	-22	217	-285	31
94	-16	176	-218	31
87	-18	182	-249	31
111	-4	121	-106	31
57	1	137	186	31
34	-6	131	364	31
44	-7	108	82	31
3	3	157	-116	31
-64	14	205	41	31
-122	21	228	57	31
-121	2	93	26	31
-96	-14	-72	19	31
-67	-7	-197	55	31
-60	-6	-264	-120	31
-47	4	-146	-209	31
-56	1	42	-54	31
36	-12	109	-83	31
99	3	77	-141	31
-31	53	76	12	31
-37	170	59	59	31
46	232	27	6	31
30	139	89	208	31
26	-14	75	265	31
-39	-186	-127	-25	31
-80	-287	-269	-299	31
-50	-209	-213	-339	31
-50	-71	-101	-118	31
-71	-6	-49	-39	31
-99	27	11	141	31
-12	38	140	229	31
22	6	299	32	31
-4	-12	332	-84	31
112	-39	202	-198	31
169	-22	111	-230	31
162	7	-104	-59	31
142	-12	-307	107	31
104	8	-259	-75	31
140	29	-309	241	31
22	39	-466	311	31
-95	34	-431	-111	31
-69	15	-182	455	31
-127	16	83	747	31
-96	7	277	270	31
-56	21	293	-247	31
-39	20	234	-227	31
46	11	279	-219	31
-32	26	232	-258	31
-108	20	147	57	31
17	19	103	53	31
51	0	39	70	31
28	-1	-60	66	31
99	21	-124	116	31
126	34	-57	68	31
91	37	24	-8	31
34	-12	86	-41	31
24	-34	117	-35	31
9	-12	69	35	31
-46	16	85	-204	31
-41	32	199	-339	31
-57	5	121	-219	31
-119	-26	-37	-109	31
-126	-54	-174	-91	31
-112	-65	-408	277	31
0	-56	-436	317	31
48	-8	-197	-217	31
17	21	73	-250	31
81	46	183	135	31
69	144	71	616	31
64	119	-140	231	31
37	11	-141	-476	31
71	19	31	-272	31
162	55	59	79	31
56	83	88	114	31
-107	118	173	-40	31
-134	95	239	-97	31
-95	49	172	-2	31
-114	-43	27	2	31
-46	-117	27	-83	31
-6	-35	72	-64	31
-21	27	-21	-1	31
-12	-2	-145	90	31
33	-39	-198	263	31
113	-152	-303	470	31
-8	-220	-341	558	31
-34	-142	-202	-250	31
47	-14	137	-1430	31
44	64	252	-939	31
92	50	82	-162	31
68	56	151	149	31
44	37	152	811	31
32	-7	71	328	31
5	-12	85	-46	31
-35	-26	42	87	31
-82	-4	56	25	31
-17	-3	62	232	31
3	11	41	256	31
-2	41	1	121	31
13	10	-6	-187	31
21	1	-2	-354	31
69	17	-21	-528	31
71	34	38	-416	31
109	16	90	71	31
95	-10	117	200	31
16	-15	126	403	31
21	-34	86	636	31
4	-48	-101	464	31
-7	-52	-203	561	31
-47	-38	-106	653	31
-88	-17	-63	134	31
-84	21	-62	-95	31
-116	82	-67	-138	31
-78	102	-91	-110	31
-62	47	-120	126	31
-57	94	-47	52	31
-21	293	101	16	31
-10	335	136	-100	31
37	223	-13	-482	31
57	144	-32	-536	31
79	-38	115	-297	31
96	-290	116	-210	31
62	-413	39	-150	31
33	-292	84	-84	31
25	-91	77	-147	31
-34	-44	-89	-123	31
-114	-27	-113	48	31
-81	-12	-67	123	31
-46	-12	-13	-207	31
-86	-12	122	-360	31
-113	-9	192	-64	31
-67	15	137	-6	31
-18	-8	-49	141	31
6	-11	-281	408	31
49	-1	-402	260	31
54	20	-389	94	31
38	43	-304	-233	31
42	12	-45	-261	31
66	14	264	122	31
51	28	367	1	31
12	40	375	-54	31
2	32	228	-49	31
-27	54	66	-62	31
-45	118	11	23	31
-72	108	-122	23	31
-86	47	-216	-101	31
-49	-19	-209	-179	31
-41	-106	-86	191	31
-38	-137	70	579	31
-35	-84	136	475	31
10	-1	52	-132	31
91	56	-42	-234	31
90	36	2	156	31
68	12	85	572	31
61	18	147	578	31
58	4	175	-75	31
57	5	176	-167	31
17	4	79	-204	31
-31	-1	-77	-108	31
-50	-6	-186	269	31
-22	4	-226	263	31
-24	15	-252	39	31
-61	14	-181	-179	31
-99	12	-31	-147	31
-87	1	-41	-49	31
-6	55	-24	-138	31
11	149	68	-198	31
15	162	165	-116	31
26	92	161	-230	31
73	-25	43	-284	31
119	-159	69	-231	31
43	-190	94	-92	31
29	-115	109	86	31
34	-46	109	100	31
36	-57	96	22	31
107	-71	65	34	31
11	2	17	100	31
-122	23	-7	47	31
-151	15	-52	60	31
-53	-8	-6	74	31
58	-7	-26	128	31
-34	49	-149	47	31
-59	38	-168	-116	31
-55	44	-23	-209	31
50	39	174	-429	31
134	36	274	-431	31
136	37	112	-7	31
200	12	-56	320	31
0	22	-49	333	31
-115	19	-39	409	31
-36	17	91	89	31
-17	21	131	-154	31
-49	11	-12	42	31
-48	12	-160	14	31
-11	17	-158	41	31
-11	-2	-141	-137	31
3	-36	-159	-248	31
-27	-16	-177	-56	31
-19	54	-220	145	31
4	87	-97	281	31
-7	46	-32	90	31
34	2	65	42	31
112	-68	121	20	31
153	-144	84	-86	31
126	-86	172	44	31
98	-12	271	98	31
33	6	314	304	31
-25	22	157	379	31
-4	14	24	-47	31
-21	17	27	-379	31
-44	18	-18	-281	31
-76	11	-162	34	31
-154	7	-257	64	31
-144	14	-237	-275	31
-85	32	-131	-609	31
-52	19	-12	-483	31
-4	6	-138	-84	31
46	11	-252	418	31
51	22	-175	923	31
46	49	-68	568	31
34	61	319	55	31
30	-1	776	37	31
18	-87	766	-122	31
-4	-153	502	-362	31
28	-56	27	-251	31
3	60	-340	-134	31
-57	31	-99	156	31
-45	50	116	806	31
-6	36	-102	494	31
-41	27	-250	-223	31
-62	19	-271	-429	31
-5	-15	-544	-572	31
-12	6	-368	-352	31
-1	-11	186	501	31
38	-18	222	410	31
60	-22	40	-79	31
85	-18	-184	298	31
77	-7	-328	183	31
81	-4	-517	21	31
63	41	-600	-150	31
34	64	-35	-121	31
-2	40	462	-117	31
-39	45	380	-213	31
-64	76	465	-176	31
-76	58	637	-284	31
-57	-18	511	-17	31
-42	-46	261	-16	31
-32	-18	-82	-50	31
-37	-30	-338	69	31
-6	-30	-515	169	31
40	-32	-478	27	31
53	-49	-201	-297	31
76	-37	-185	-642	31
86	-7	-302	-706	31
71	92	107	-281	31
44	148	470	695	31
14	55	332	1559	31
-11	-124	36	746	31
-22	-273	361	-28	31
-29	-241	734	-70	31
-39	-101	311	-294	31
-56	13	235	-86	31
-61	123	72	-132	31
-33	119	-164	-93	31
-11	81	-357	206	31
21	127	-477	136	31
32	115	-250	117	31
-2	116	-232	-239	31
14	101	-171	-548	31
17	48	-201	-428	31
30	9	-64	-356	31
40	-27	-9	-365	31
36	-14	-69	-338	31
40	-31	-159	-350	31
-7	-15	-358	-110	31
7	0	-83	556	31
-21	-16	340	771	31
-42	1	472	682	31
-36	-9	239	265	31
-49	-7	238	-203	31
-3	-4	231	-124	31
-2	-14	-7	-183	31
22	-30	3	-171	31
27	-27	19	-266	31
56	-2	139	67	31
117	-2	127	687	31
103	-1	114	658	31
77	31	200	448	31
39	110	86	136	31
26	111	-34	-56	31
-1	37	-176	-147	31
-13	-24	-307	-74	31
-16	-94	-326	-84	31
-54	-102	-132	-106	31
-24	-52	44	-29	31
11	-10	174	-96	31
-33	-17	292	-177	31
-78	-28	165	-276	31
-57	-32	-80	-204	31
31	-51	-324	-141	31
56	-23	-205	-82	31
20	-16	101	-82	31
46	-2	244	92	31
37	37	226	231	31
10	60	-132	-56	31
-6	54	-535	430	31
22	30	-609	1191	31
99	33	-390	855	31
13	4	-119	-12	31
-61	-35	-207	-755	31
-51	-12	6	-755	31
-85	98	531	-781	31
-91	184	803	-459	31
-135	169	897	9	31
-126	216	382	-226	31
-90	251	-179	-152	31
-66	52	-602	-385	31
41	-137	-573	-353	31
81	-27	32	-171	31
40	-42	339	-102	31
138	-358	350	61	31
202	-426	94	-29	31
107	-231	-86	29	31
97	-59	54	517	31
22	-12	152	1048	31
-62	-34	117	604	31
-55	-16	-42	571	31
-76	-26	-771	541	31
-89	-27	-1223	-92	31
-114	-4	-708	2	31
-72	31	-67	-443	31
-34	61	490	-429	31
-10	34	646	-302	31
33	22	630	-541	31
58	-9	244	641	31
87	-14	-99	1032	31
73	37	238	-41	31
63	84	297	-493	31
45	114	308	-253	31
8	65	191	-332	31
-36	34	-369	-476	31
-57	81	-750	-125	31
-74	71	-598	145	31
-122	55	-193	-342	31
-125	110	89	-152	31
-95	267	249	224	31
-86	418	279	-136	31
-54	371	350	-384	31
-5	207	449	-382	31
34	-91	394	4	31
71	-557	336	631	31
84	-780	101	1276	31
145	-464	-709	6	31
135	-177	-757	-1146	31
64	-92	33	-220	31
105	52	546	159	31
15	267	819	713	31
-75	579	567	1027	31
20	489	87	507	31
22	172	-552	-1039	31
-81	-2	-1178	-1296	31
-98	-133	-1511	247	31
-129	-245	-1172	712	31
-145	-434	-307	1049	31
-86	-312	347	289	31
-79	-20	1105	-280	31
-26	-103	1559	-81	31
44	-199	1155	207	31
123	-186	117	325	31
247	-89	-338	-543	31
315	117	-34	-439	31
250	143	265	123	31
147	132	118	510	31
82	129	-451	372	31
-19	91	-597	-750	31
-97	59	-451	-949	31
-164	39	-649	-325	31
-183	76	-654	-603	31
-97	219	195	-332	31
-54	318	634	66	31
-99	165	408	-308	31
-106	23	-25	580	31
-7	-111	-337	817	31
87	-226	743	159	31
41	-190	2027	633	31
40	-121	1424	454	31
233	69	156	-381	31
217	167	-1057	-873	31
100	57	-2033	-1277	31
29	-42	-774	-339	31
-142	45	59	1833	31
-146	188	-1022	1812	31
-212	149	-988	122	31
-286	87	49	-165	31
-235	-57	979	-290	31
-152	-182	633	-96	31
-24	-74	-509	-150	31
66	193	-1074	-761	31
144	260	-118	-369	31
122	99	1754	-486	31
91	-41	1315	-640	31
-27	-350	-259	547	31
-44	-475	-1069	1253	31
40	-275	-759	180	31
-51	-78	72	278	31
-7	-34	240	502	31
43	-43	967	-483	31
91	-29	1102	-118	31
91	-101	546	152	31
-42	-59	-410	670	31
-75	61	-551	342	31
-492	179	205	-786	31
-1307	215	-141	-725	31
-1298	155	-631	-859	31
-79	37	-361	-393	31
918	-87	821	365	31
1159	-40	944	-106	31
877	-1	-100	-520	31
522	31	-605	146	31
365	16	-586	449	31
179	-14	-200	21	31
157	99	428	-135	31
-18	135	736	-15	31
4	116	458	170	31
215	64	-277	168	31
142	58	-956	-301	31
-11	77	-581	-1096	31
-231	36	543	-888	31
-314	-8	946	-103	31
-214	-96	758	164	31
-92	-139	-38	406	31
-28	-142	-1084	-44	31
-46	-61	-1025	364	31
-20	45	-852	505	31
36	45	214	989	31
47	51	49	2275	31
14	39	-1112	1255	31
-21	31	-227	221	31
-29	29	486	-964	31
-95	4	1297	-1877	31
-106	-56	2145	-1251	31
-57	-145	1744	-64	31
-82	-129	-87	790	31
-161	-37	-2234	1677	31
-189	86	-3314	1404	31
64	201	-2035	-553	31
121	323	510	-1770	31
-84	364	2640	-1519	31
-44	230	2794	-55	31
-8	98	483	-89	31
57	-190	-978	437	31
163	-420	-2047	423	31
165	-190	-1409	-268	31
86	31	522	-91	31
-64	86	834	126	31
-236	29	474	1439	31
-355	-94	-231	962	31
-220	-66	-560	1049	31
-1	-64	-167	135	31
205	-56	149	-2120	31
242	-26	328	-1232	31
162	-56	679	-611	31
144	-50	728	-329	31
6	-17	689	254	31
29	17	244	-357	31
71	-12	-505	-664	31
23	-16	-540	-85	31
71	24	-94	-305	31
15	-23	372	-226	31
-4	-85	688	1217	31
6	-56	452	1790	31
-7	-19	-706	1004	31
-14	-37	-733	-231	31
-66	33	-93	42	31
-35	168	-69	678	31
-20	193	-33	788	31
-54	168	-502	-465	31
-121	200	-638	-1840	31
-166	168	-512	-769	31
-161	71	81	-144	31
-142	-54	124	-209	31
-36	-181	-14	-197	31
117	-160	1060	-480	31
242	-111	1523	-417	31
259	-46	976	27	31
223	-17	-269	115	31
184	-21	-675	141	31
113	14	-89	309	31
31	-32	-357	565	31
-32	-1	-192	880	31
-9	41	-94	429	31
-39	4	-221	129	31
-101	17	96	-210	31
-89	11	-13	-821	31
-239	-9	-25	-455	31
-533	-9	-102	129	31
-544	19	196	470	31
-176	32	-88	607	31
194	2	-584	246	31
448	1	-308	-473	31
498	36	190	-1053	31
314	42	489	-1141	31
90	26	177	-254	31
-518	29	-92	1145	31
-1062	-31	-487	1066	31
-365	-42	212	505	31
649	34	1069	198	31
964	49	-177	199	31
922	28	-1585	128	31
403	-42	-1564	-116	31
-88	-64	-669	503	31
-181	-77	329	176	31
-96	-101	1002	-301	31
-12	-44	1538	-344	31
-69	-35	1094	-214	31
-57	-30	326	-29	31
-56	-9	187	-288	31
22	-22	302	-101	31
84	-52	435	356	31
195	-11	-425	226	31
151	102	-986	-224	31
-250	134	-178	-390	31
-207	107	555	-380	31
-37	95	-120	263	31
-39	93	-599	71	31
-170	-14	244	-634	31
-183	-34	1108	-509	31
57	47	-27	27	31
77	-66	-1829	528	31
79	-187	-1420	71	31
-19	-208	-279	-97	31
-37	-94	543	617	31
-19	57	350	513	31
-133	134	-57	-729	31
12	203	116	-1001	31
167	106	-112	-627	31
182	55	65	-439	31
81	162	348	-173	31
-71	54	283	625	31
-67	-7	531	1061	31
-50	94	658	646	31
29	-2	585	869	31
189	-74	397	395	31
167	-102	-41	285	31
14	-104	-389	213	31
-69	-40	-481	-476	31
-117	-56	-167	-860	31
-276	-14	489	-820	31
-514	-4	378	623	31
-542	12	27	1070	31
-266	67	314	-163	31
-125	48	-1142	-460	31
-126	62	-2217	51	31
76	35	-889	359	31
464	28	-99	440	31
706	29	-46	-512	31
552	-13	128	-1106	31
241	-19	128	-512	31
66	-39	362	170	31
-57	-29	684	346	31
-318	-33	140	-67	31
-772	-35	184	-743	31
-1267	11	439	-1039	31
-875	6	490	-9	31
167	-11	504	889	31
299	-11	-167	380	31
184	-28	282	-219	31
472	-24	674	846	31
581	5	269	1325	31
645	35	-159	566	31
501	39	-613	-605	31
290	17	-373	-583	31
103	11	-488	45	31
107	52	-199	-304	31
412	97	169	-120	31
399	91	-32	-349	31
226	104	-34	-42	31
109	71	88	162	31
-89	-31	626	171	31
-307	-13	399	47	31
-334	17	102	-277	31
-239	-6	49	-95	31
105	76	-65	-57	31
363	-2	-94	212	31
-2	-273	-219	305	31
-153	-187	-76	231	31
-161	166	-313	-297	31
-320	240	-103	-895	31
-484	170	513	-515	31
-576	198	653	563	31
-47	139	279	1019	31
395	-7	-733	307	31
342	-62	-1167	12	31
154	-44	-724	-97	31
64	-208	-222	-573	31
55	-351	293	-402	31
-52	-267	369	-11	31
-168	-190	-59	364	31
-314	-124	-237	404	31
-36	-244	191	228	31
185	-458	460	55	31
-35	-413	75	-95	31
14	-116	-121	-146	31
-21	91	-22	-274	31
-120	85	231	-67	31
24	79	538	179	31
-1	89	646	526	31
-64	120	689	237	31
-69	119	337	-760	31
-167	82	-220	-683	31
-241	81	-381	-387	31
-304	114	-596	402	31
-214	147	-648	1318	31
-2	125	-198	640	31
93	89	97	-47	31
149	89	387	-351	31
142	80	76	-533	31
139	77	-495	98	31
130	101	-405	505	31
77	93	-445	150	31
84	81	-445	-39	31
76	63	-43	-401	31
81	31	388	-139	31
-2	21	568	494	31
-209	10	422	408	31
-264	19	84	-232	31
-51	24	-134	-1083	31
136	21	-285	-1237	31
178	32	56	-502	31
128	66	365	291	31
24	207	1	-234	31
3	327	-44	101	31
-44	441	27	1092	31
46	504	20	1014	31
207	45	-336	371	31
141	-771	-562	-570	31
-214	-847	-229	-657	31
-756	-232	43	-810	31
-779	-89	505	-222	31
60	-106	209	886	31
611	30	-284	906	31
553	74	-251	413	31
457	179	-79	-147	31
225	122	295	-291	31
54	6	241	-199	31
-126	-102	239	-122	31
-129	-167	272	-156	31
-75	-17	172	-101	31
-177	142	168	190	31
-320	121	74	447	31
-538	27	31	420	31
-660	-47	19	132	31
-511	-175	4	-192	31
163	-190	-7	-858	31
603	-99	124	-1683	31
325	72	373	-1492	31
-149	202	568	-27	31
-186	145	513	2069	31
178	118	-185	2080	31
557	11	-720	118	31
461	-116	-186	37	31
-295	-14	217	167	31
-798	230	-67	204	31
-1289	249	-496	666	31
-723	15	-864	271	31
852	-132	-496	284	31
1512	-234	-48	-411	31
1563	-67	-124	-1232	31
991	182	-116	-398	31
451	131	-315	-392	31
44	265	-217	-586	31
-84	510	-155	-69	31
344	760	-268	-197	31
154	1479	15	-76	31
-182	1823	87	-111	31
-117	1056	463	7	31
-385	-373	730	253	31
-836	-2102	710	448	31
-1004	-2862	600	380	31
-357	-2265	264	-271	31
545	-1308	108	-187	31
608	-281	-42	-37	31
505	73	-60	-12	31
229	-18	-129	124	31
-21	122	-109	189	31
-22	87	41	37	31
28	161	86	-251	31
-14	311	-39	-32	31
-105	332	-98	132	31
-92	282	402	-29	31
-214	163	503	-354	31
-111	56	142	-153	31
-125	-39	74	232	31
-167	21	-20	587	31
-192	137	-294	1046	31
-245	408	-613	860	31
-111	822	-643	41	31
-70	827	-454	-704	31
81	247	-212	-426	31
-16	-287	138	-414	31
-22	-213	126	-228	31
221	-155	-350	-22	31
172	-234	-356	-146	31
12	155	181	91	31
-199	-22	352	-118	31
4	-506	335	-82	31
131	-157	172	132	31
30	125	-156	136	31
-51	205	-70	-245	31
-186	438	78	-743	31
-21	663	304	-973	31
-62	591	573	-418	31
-129	177	382	721	31
-26	-182	-16	1469	31
-89	-406	-500	1500	31
-172	-606	-877	523	31
-212	-628	-753	-237	31
-87	-303	-366	-86	31
154	-192	219	45	31
220	-111	496	342	31
14	35	197	-366	31
-364	-75	34	-1241	31
-611	-76	127	-453	31
-446	-17	209	-52	31
61	223	149	34	31
633	563	-17	-107	31
664	585	-146	-212	31
408	398	-120	92	31
363	109	190	176	31
-119	-243	488	9	31
-139	-348	413	-217	31
109	-164	146	417	31
-908	-102	179	638	31
-1803	-225	445	415	31
-1080	-320	387	-33	31
393	-328	247	-627	31
1321	-142	121	-848	31
1565	142	-471	-545	31
1084	266	-1026	275	31
151	294	-846	290	31
-478	156	-507	-244	31
-439	34	-301	-341	31
-731	-32	-250	134	31
-1709	-106	-410	157	31
-1293	72	-58	415	31
-36	132	224	500	31
380	118	397	164	31
305	71	699	278	31
585	-135	381	94	31
895	-164	269	-69	31
347	-32	254	-602	31
793	182	49	-723	31
1513	430	135	-227	31
818	762	-46	289	31
404	973	-119	743	31
295	485	-377	875	31
104	-514	-633	380	31
-259	-1100	-98	-193	31
-438	-1072	88	119	31
-152	-593	55	6	31
9	-84	16	-17	31
36	-61	-144	-557	31
-197	-33	-110	-663	31
-47	19	13	126	31
-22	21	87	-142	31
-129	136	-26	-106	31
42	144	-212	-183	31
-84	129	-287	-173	31
-91	89	59	-174	31
-303	137	432	-383	31
-833	170	608	-154	31
-1418	141	394	66	31
-1498	200	60	550	31
-477	45	167	662	31
980	-81	355	-2	31
1532	53	630	-272	31
945	21	528	14	31
283	-108	71	193	31
-477	-61	-302	776	31
-811	253	-845	577	31
-505	601	-971	-332	31
16	617	-525	-429	31
612	385	-245	-549	31
470	-466	-82	-180	31
230	-1150	152	735	31
493	-746	98	461	31
479	-249	219	-166	31
-297	87	787	-407	31
-1043	209	889	-473	31
-1405	263	595	-126	31
-1958	205	-6	-37	31
-2310	-314	-911	257	31
-591	-381	-866	454	31
1734	-54	-362	90	31
1648	226	-230	259	31
1261	281	-63	-240	31
883	86	162	-877	31
120	82	414	-201	31
439	90	420	299	31
501	102	99	339	31
-260	145	-283	-27	31
-305	42	-362	-265	31
-143	-112	-243	-715	31
-350	-231	-79	-825	31
107	-96	145	193	31
1006	-22	174	207	31
815	-21	246	894	31
-1431	296	279	1801	31
-2388	330	183	596	31
-606	-62	93	-312	31
-294	-434	-250	-281	31
-314	-513	-417	-394	31
1600	-265	-238	-11	31
2370	-51	-96	432	31
1645	27	-69	12	31
852	67	-171	-468	31
227	142	-41	-253	31
-109	160	-2	-238	31
311	109	-146	-225	31
737	139	-71	-87	31
418	182	123	-205	31
467	210	489	-71	31
322	243	817	117	31
-327	203	714	349	31
-525	-24	295	532	31
-344	-219	-6	505	31
-297	-343	-345	229	31
-643	-373	-446	14	31
-1818	66	-103	-464	31
-3125	408	169	-786	31
-1527	323	308	-450	31
1136	262	131	-593	31
1286	87	-196	-59	31
1891	47	-440	510	31
1428	70	-513	462	31
89	-175	-274	147	31
390	-345	-28	-374	31
6	-524	-35	-319	31
32	-382	-60	-453	31
-685	-37	102	-407	31
-2245	14	165	56	31
-2453	129	-12	434	31
-1084	107	-204	14	31
897	32	-134	-390	31
1709	-11	-64	-533	31
1744	-84	46	-223	31
1089	-2	10	-36	31
184	31	-205	-373	31
7	73	169	307	31
-425	109	550	681	31
-973	126	388	1118	31
-881	135	-97	1238	31
-268	77	-247	139	31
122	44	-59	410	31
-230	20	39	845	31
-1116	22	266	-520	31
-1653	20	209	-414	31
132	36	51	414	31
1688	112	-81	191	31
1717	194	-479	-219	31
1262	206	-370	-612	31
-616	133	85	-290	31
-586	-29	204	-325	31
1445	-256	389	-233	31
1027	-279	520	131	31
-21	-121	175	-80	31
-875	-36	-158	-316	31
-1141	2	-187	346	31
1292	78	-122	694	31
1419	124	159	-210	31
272	108	423	-776	31
272	10	329	-345	31
-1122	-114	311	524	31
-1777	-91	-86	360	31
-743	-38	-796	-472	31
106	-11	-832	-2	31
-215	9	-373	202	31
388	-26	-109	-772	31
794	-25	-315	-767	31
-916	-29	-292	-719	31
-2367	-3	-210	477	31
-2038	109	-103	1725	31
-124	346	510	802	31
1116	619	864	400	31
1818	535	630	52	31
2109	143	434	19	31
1131	-306	150	703	31
878	-671	-456	409	31
656	-486	-561	-336	31
37	-124	-534	-1031	31
79	-421	-451	-908	31
227	-603	6	-487	31
39	-161	206	117	31
156	99	479	1097	31
244	98	600	1170	31
-120	-5	323	-179	31
-496	-46	82	-1422	31
-696	72	116	-789	31
81	77	333	-45	31
-284	57	162	601	31
-2225	69	-104	340	31
-2965	65	-244	-721	31
-220	88	-233	-767	31
1845	205	-130	-573	31
582	318	-86	-140	31
941	227	-27	496	31
929	72	-97	412	31
720	-117	-111	-427	31
512	-282	-25	-254	31
-756	-205	-81	-23	31
-355	-41	-249	-274	31
113	-62	-84	-216	31
-144	1	228	-133	31
-1295	286	214	-109	31
-2109	446	388	80	31
-1427	390	337	1543	31
-226	129	-375	2053	31
1522	-285	-534	593	31
2257	-517	-465	-29	31
848	-342	-403	-390	31
297	-114	-117	-299	31
327	12	-58	441	31
-695	64	62	-350	31
-395	53	209	-652	31
262	86	332	-127	31
-72	112	184	-402	31
-418	147	-147	-228	31
344	81	-214	206	31
522	15	-66	269	31
-69	-1	-6	-63	31
610	-26	304	249	31
151	22	847	810	31
-217	60	821	328	31
-163	90	148	172	31
-1358	49	-408	-101	31
-1440	-16	-520	-479	31
374	-17	-478	-585	31
1675	27	-51	-715	31
1027	69	382	-189	31
344	34	545	9	31
-1443	-7	453	-73	31
-3220	-24	-77	-112	31
-1708	-22	-541	-313	31
-466	-7	-573	-529	31
-261	-14	-228	-845	31
2390	-32	2	-69	31
2733	-37	-15	1428	31
996	-26	-146	1787	31
947	-4	-224	337	31
187	11	190	-420	31
339	-19	508	-533	31
262	-44	169	-1148	31
324	-84	-309	-925	31
508	-66	-430	45	31
270	-41	-67	1439	31
440	-4	534	1823	31
-480	81	413	1282	31
-723	-17	-81	-510	31
-217	-31	-16	-943	31
349	39	-11	-429	31
-146	34	-50	-1062	31
-455	91	7	-112	31
-166	47	-2	700	31
-413	58	11	1201	31
-82	176	50	206	31
-314	185	198	-1208	31
-434	84	59	-895	31
-76	-90	-165	-607	31
387	-273	-275	83	31
282	-239	-276	6	31
-231	-56	-11	494	31
-60	-16	244	764	31
-684	-1	260	-462	31
-1470	-16	1	-505	31
-843	-28	-157	-437	31
219	4	62	-20	31
307	-2	797	651	31
239	11	889	329	31
134	-2	108	242	31
-227	0	-554	164	31
-1479	26	-1203	-589	31
-1657	64	-973	-683	31
771	109	-135	-92	31
1194	139	-4	503	31
1103	170	-151	-63	31
1024	142	-22	-764	31
-63	-60	178	751	31
217	-323	265	949	31
522	-200	157	11	31
500	-24	-22	107	31
-419	-140	-23	365	31
-645	-102	-19	394	31
140	1	51	33	31
3	26	333	-754	31
172	17	500	-537	31
145	15	457	-27	31
-24	25	424	-583	31
127	-47	301	567	31
-302	-6	-138	848	31
-1113	53	-510	105	31
-619	77	-585	-77	31
955	106	-426	-445	31
483	89	-223	-242	31
-61	96	-77	-276	31
452	60	62	-93	31
380	9	-42	-89	31
369	-21	-109	-44	31
-1	-14	2	31	31
-67	9	170	35	31
6	18	329	122	31
-61	103	240	37	31
-102	200	109	124	31
-155	190	39	39	31
-52	47	-14	45	31
-27	-112	39	-7	31
-43	-230	106	-102	31
-170	-245	52	-226	31
74	-84	118	-151	31
21	-11	261	288	31
-41	-54	163	731	31
55	-12	259	1317	31
-104	24	120	562	31
-17	57	-339	-1377	31
-87	183	-375	-1757	31
-100	270	-254	-1071	31
-167	229	-200	571	31
-177	123	-470	2115	31
-109	-90	-581	796	31
-162	-138	-249	-216	31
-46	59	-55	-410	31
-22	-52	92	-473	31
5	-382	221	-214	31
-61	-466	308	-633	31
-69	-198	314	-365	31
164	53	233	109	31
260	53	228	327	31
-106	115	352	-114	31
-402	126	461	69	31
-195	53	290	640	31
-255	-4	148	281	31
-74	-36	138	-433	31
225	0	368	-1365	31
11	-20	531	-527	31
-57	9	-29	1179	31
-164	68	-977	1570	31
-843	94	-1316	1085	31
-2047	128	-924	21	31
-2351	119	-610	-570	31
-190	170	-240	-495	31
1984	242	139	-397	31
2267	207	369	-155	31
1874	68	235	-144	31
97	-158	133	-122	31
-605	-214	268	-10	31
-230	4	325	-7	31
-230	34	585	169	31
691	-166	423	248	31
714	-267	50	46	31
892	-202	-282	-254	31
119	-67	-436	-557	31
-1296	-10	-127	-609	31
-418	-2	48	-815	31
886	11	62	-382	31
969	39	12	1382	31
423	39	-69	2507	31
327	34	-243	1883	31
161	82	-279	-769	31
93	69	7	-1290	31
32	29	-154	-490	31
-48	47	-470	-986	31
-126	61	-253	-412	31
-523	25	20	-457	31
-419	-34	289	-179	31
-81	-96	473	-62	31
-79	-79	457	-17	31
-71	22	375	185	31
134	64	158	-45	31
-29	82	42	180	31
-82	84	29	22	31
-2	162	9	107	31
-121	303	91	45	31
47	305	187	84	31
-20	119	173	197	31
44	-243	130	159	31
15	-401	-14	70	31
-86	-263	-96	0	31
133	-148	32	64	31
-14	-81	30	-242	31
-121	-61	-121	-487	31
-47	-32	-163	-348	31
15	-37	-150	461	31
-258	-64	-48	536	31
-383	2	236	-108	31
-24	33	242	196	31
90	26	-12	505	31
-112	3	-261	859	31
-683	1	-558	430	31
-705	61	-312	-897	31
482	115	163	-639	31
676	105	156	-100	31
-110	44	61	282	31
-685	37	86	558	31
-1398	57	185	78	31
-189	117	224	-187	31
962	199	150	-330	31
209	168	-59	-352	31
315	161	-355	-187	31
672	133	-302	375	31
224	-56	-116	506	31
-506	-209	13	-523	31
-300	-382	328	-943	31
-149	-394	583	-24	31
-229	-77	620	438	31
974	55	182	328	31
1008	18	-402	110	31
470	8	-631	98	31
593	20	-761	-36	31
-14	107	-416	-352	31
-227	187	156	-42	31
210	211	286	24	31
86	192	146	387	31
-89	81	-112	498	31
18	-87	-298	69	31
-137	71	-324	-162	31
-94	244	-81	-122	31
-155	104	127	38	31
-274	14	58	-290	31
-200	-270	56	-468	31
-152	-570	167	-917	31
-96	-511	352	-1073	31
-107	-461	402	-85	31
-70	-192	237	1322	31
-357	188	-59	2116	31
-302	179	-358	1088	31
311	145	-335	-74	31
332	126	14	-235	31
35	28	89	-405	31
-267	8	-87	-377	31
-176	0	11	-271	31
381	18	65	-178	31
172	61	18	-176	31
-272	103	-23	-259	31
-59	126	-1	3	31
-76	112	162	41	31
-114	54	259	-45	31
-30	-37	234	-64	31
-189	-29	101	-143	31
-73	35	31	-130	31
37	36	-9	-122	31
-22	44	-72	36	31
-25	49	-22	102	31
232	19	294	206	31
193	-6	353	422	31
-91	7	-3	39	31
-83	25	-125	-492	31
-16	18	-132	-310	31
104	46	-62	-192	31
-116	82	-311	-185	31
-71	151	-519	127	31
49	210	-96	259	31
-94	127	253	277	31
-249	-74	529	254	31
-448	-342	352	101	31
-20	-330	-167	-580	31
317	-68	-508	-745	31
326	-19	-355	-244	31
365	-34	344	-61	31
136	-53	317	743	31
-21	-58	-284	1148	31
136	4	-541	303	31
98	56	-277	891	31
-27	109	185	1131	31
-23	65	636	-493	31
-253	81	676	-663	31
-374	146	161	-653	31
-497	213	-314	-748	31
-446	295	-623	-117	31
149	197	-407	147	31
218	46	-16	656	31
77	-144	24	121	31
22	-327	-56	-658	31
-914	-206	14	-473	31
-715	-16	107	-615	31
1121	32	139	-487	31
1324	66	362	-364	31
504	-10	460	77	31
239	-125	27	298	31
-121	-164	-372	169	31
-301	-141	-367	821	31
-755	-54	-418	444	31
-323	19	-257	-2	31
673	59	4	163	31
-1	57	41	-156	31
-59	53	120	76	31
149	46	123	290	31
-680	-6	184	156	31
55	-38	276	-17	31
958	-5	265	53	31
476	1	100	-52	31
2	-7	-69	-499	31
39	21	-17	-507	31
116	1	44	-207	31
-68	7	229	186	31
208	12	275	931	31
190	16	-77	786	31
169	134	-285	-508	31
367	179	-373	-225	31
151	176	-382	110	31
-74	139	-61	-70	31
-262	-106	137	-1	31
-209	-184	114	-244	31
-806	-66	212	113	31
-987	-56	182	164	31
42	62	72	21	31
392	129	-20	-265	31
271	84	-65	-394	31
288	16	34	-54	31
35	-200	49	-96	31
-179	-66	46	-182	31
202	282	40	-251	31
482	164	42	-132	31
383	-61	47	32	31
190	86	-16	217	31
-91	-3	-24	487	31
-50	-406	32	347	31
-69	-481	137	213	31
-134	-358	91	279	31
-53	-174	20	325	31
-163	-99	71	247	31
-163	-4	96	-105	31
-104	87	105	-306	31
-18	32	-57	-188	31
24	104	-123	-226	31
-34	124	-113	-317	31
-32	101	-247	-124	31
20	86	-72	-62	31
86	84	-24	-434	31
34	99	-267	-434	31
20	92	-147	-92	31
-180	90	104	27	31
-288	69	424	160	31
-154	79	569	-223	31
-941	48	305	-846	31
-1753	39	106	-116	31
-350	32	-214	1432	31
1094	10	-452	1462	31
249	19	-524	600	31
77	9	-591	265	31
630	15	-400	194	31
706	55	-172	4	31
763	275	94	-208	31
314	513	180	154	31
227	388	42	-147	31
162	25	-62	-780	31
117	-419	-126	-1201	31
27	-636	113	-1605	31
-177	-463	272	-555	31
33	-198	43	1353	31
-42	-6	-214	1807	31
-195	-12	-274	763	31
-280	-1	-285	-29	31
-235	43	-267	-557	31
-136	54	35	-618	31
-374	121	531	-451	31
-778	178	633	-228	31
-806	282	337	166	31
-30	277	207	89	31
-357	111	213	57	31
-995	-291	247	19	31
677	-490	297	96	31
1337	-137	321	294	31
821	2	209	204	31
605	-55	97	150	31
69	9	47	96	31
290	41	10	42	31
97	82	-44	22	31
23	71	-235	-61	31
192	17	-304	-58	31
-44	7	-362	-262	31
-122	18	-315	-811	31
-90	-2	-59	-746	31
84	9	172	-35	31
1	16	342	356	31
37	38	47	504	31
47	106	-370	466	31
12	113	-415	331	31
52	99	-271	49	31
-80	21	84	-333	31
-49	-76	383	-308	31
21	-118	381	-218	31
-71	-89	96	228	31
-174	-27	-237	1054	31
-183	21	-448	622	31
-189	43	-483	-476	31
-119	1	-134	-426	31
-78	-5	141	14	31
-22	0	108	-28	31
37	9	106	-353	31
33	51	131	-366	31
114	112	156	-1	31
108	202	68	293	31
75	185	-62	-54	31
31	44	-108	-327	31
-29	-257	-92	-1	31
-64	-413	4	-264	31
-15	-103	87	-104	31
7	67	204	521	31
-286	-4	312	581	31
-607	-16	196	337	31
-1005	-51	-136	45	31
-1896	-13	-345	-347	31
-1733	14	-249	-663	31
688	49	-67	-259	31
1768	77	-66	-299	31
1249	46	-47	-501	31
1464	37	137	230	31
934	13	124	375	31
557	46	197	200	31
327	43	361	477	31
-58	6	427	493	31
31	7	511	264	31
-133	2	496	-330	31
-1109	-1	456	-437	31
-1800	-27	335	-57	31
-634	-7	147	161	31
339	78	-61	326	31
855	114	-481	372	31
794	41	-994	278	31
-142	-29	-1075	21	31
-495	-14	-1044	314	31
146	54	-883	42	31
739	65	-194	-789	31
219	11	406	-693	31
314	-114	378	-336	31
342	-225	209	385	31
335	-109	187	1262	31
532	47	116	924	31
283	113	108	-45	31
402	70	82	-302	31
-519	-67	195	-831	31
-930	-185	202	-747	31
-720	-159	18	114	31
-1295	26	-20	-22	31
-522	66	-134	-106	31
760	167	-186	93	31
901	413	16	154	31
508	406	413	288	31
134	185	499	568	31
77	-303	101	-36	31
82	-746	-158	-930	31
8	-393	-284	-653	31
24	91	-216	-628	31
34	76	79	-706	31
70	36	139	-394	31
14	35	47	14	31
-124	78	174	598	31
-74	81	314	605	31
-32	39	142	347	31
-113	139	-60	324	31
-169	304	-86	356	31
-154	383	-6	237	31
-139	275	-82	86	31
-91	41	-209	-39	31
-68	-362	-116	-95	31
-67	-606	-4	-4	31
45	-415	158	214	31
84	-136	161	292	31
3	-39	25	-5	31
-19	27	47	-57	31
22	110	-2	-119	31
31	104	4	-240	31
-139	74	35	-124	31
-591	39	11	68	31
-660	37	42	211	31
-68	6	-3	-58	31
341	-23	-30	-199	31
255	-10	-30	-44	31
7	-17	-16	-78	31
-123	37	79	27	31
-213	80	216	247	31
-513	154	275	74	31
-733	283	270	152	31
-789	293	134	228	31
-750	202	-169	-135	31
717	-60	-202	207	31
1583	-420	-290	396	31
723	-336	-539	176	31
1052	47	-343	362	31
796	182	-149	-204	31
94	124	-183	-563	31
87	-3	-217	-370	31
-34	-126	-214	-472	31
32	-172	-194	-119	31
-127	-91	-149	314	31
-354	-16	190	146	31
-1093	10	636	-327	31
-999	34	740	-369	31
-75	4	382	-121	31
-14	3	48	-20	31
557	14	-344	-454	31
1121	27	-638	-572	31
522	19	-422	91	31
314	19	-219	312	31
81	48	24	837	31
-300	34	-14	1175	31
-164	40	-68	317	31
-430	47	209	-224	31
-841	29	258	-66	31
-888	22	222	-59	31
-81	-1	111	-160	31
1089	-7	102	-187	31
821	11	96	-184	31
-290	14	137	-75	31
-51	18	290	-219	31
437	49	377	-196	31
95	123	374	-74	31
62	150	367	112	31
73	84	337	252	31
79	-164	-49	143	31
58	-454	-149	174	31
-76	-234	-338	152	31
-143	73	-494	102	31
-54	45	-121	-252	31
-38	68	-51	-126	31
-98	44	-104	896	31
-40	2	-262	420	31
-208	19	-309	-988	31
-131	19	-122	-714	31
-28	47	-17	78	31
-19	62	39	59	31
53	100	20	-577	31
32	97	66	-656	31
2	32	-44	-34	31
-59	-29	-117	217	31
74	-107	-4	375	31
83	-146	-30	-19	31
30	-87	28	-375	31
4	-27	114	57	31
-112	28	-174	248	31
-91	112	-347	209	31
7	219	20	323	31
-28	243	308	-344	31
-160	64	343	-658	31
-146	-158	332	132	31
-97	-377	270	726	31
-61	-287	229	1135	31
-19	32	53	492	31
20	204	-92	149	31
71	353	-89	384	31
61	300	-6	-188	31
-167	119	38	202	31
-711	-126	-201	530	31
-456	-372	-384	-168	31
634	-404	-399	-424	31
617	-239	-315	-185	31
2	116	-48	-157	31
-559	301	347	-76	31
-1131	390	613	-388	31
114	305	410	-443	31
1079	-14	72	-16	31
561	-244	-142	-9	31
443	-493	-204	169	31
-265	-396	-250	-28	31
-310	41	-304	-62	31
244	388	-173	-70	31
327	474	-114	-197	31
406	345	-127	-42	31
145	-88	-140	-36	31
181	-623	51	-19	31
68	-546	254	-47	31
-96	-264	322	30	31
-53	121	306	46	31
-109	431	135	-102	31
-602	227	136	-177	31
-868	-49	270	62	31
-1	-315	437	264	31
508	-225	568	329	31
338	8	382	437	31
332	12	-144	126	31
94	111	-344	-404	31
-202	144	-185	-570	31
-36	122	-151	-252	31
-33	77	-149	54	31
98	19	-257	114	31
270	18	-482	100	31
-81	-11	-759	-345	31
-436	8	-655	-491	31
-417	21	-212	222	31
180	22	49	184	31
332	70	322	-275	31
49	94	432	-562	31
101	85	259	-612	31
56	104	-39	218	31
-23	211	-233	1054	31
-77	210	-157	906	31
-9	81	187	639	31
-12	-7	385	642	31
48	-146	242	2	31
167	-202	340	-59	31
-13	-142	335	-64	31
-29	-76	-150	-432	31
-55	-21	-484	115	31
-74	-6	-337	567	31
-27	34	56	368	31
-103	34	397	269	31
-59	27	319	56	31
123	19	276	-482	31
146	7	440	-536	31
-317	86	112	-436	31
-274	159	-92	-151	31
154	167	49	71	31
-75	143	-42	49	31
-32	-12	-310	-107	31
84	-249	-540	-262	31
-14	-254	-347	-274	31
-9	-18	-151	-398	31
-33	260	-46	-14	31
-88	379	140	263	31
-359	197	89	82	31
-620	-416	149	-152	31
-453	-910	-32	-269	31
108	-320	-338	-297	31
97	311	-101	-76	31
259	198	17	47	31
555	50	-5	-182	31
-82	-222	202	-72	31
-357	-245	239	-116	31
-42	6	113	-235	31
184	49	-20	6	31
-400	74	-48	134	31
-360	37	132	350	31
766	59	112	442	31
934	77	-2	164	31
663	66	6	81	31
402	141	-89	12	31
295	143	-41	7	31
208	118	40	-197	31
22	36	-86	-470	31
16	-68	-99	170	31
-166	-61	-159	687	31
-200	2	-249	974	31
-132	55	-147	1195	31
-133	181	-33	334	31
-203	317	221	-343	31
-334	291	387	-302	31
-264	184	263	-109	31
-568	2	82	-78	31
-871	-290	-108	-231	31
205	-388	-114	-281	31
1022	-205	-9	-303	31
521	-152	-24	184	31
167	-258	67	526	31
-280	-152	53	142	31
-12	27	-35	-67	31
558	37	-136	-283	31
282	108	-234	-458	31
101	238	-71	-318	31
-182	223	150	-277	31
-172	167	200	-208	31
-114	146	80	-127	31
-97	66	10	-1	31
-140	-72	21	14	31
-418	-215	87	-58	31
-323	-310	106	-139	31
-102	-240	77	-14	31
98	-82	169	6	31
123	-24	279	-226	31
252	-24	109	-208	31
250	28	-116	167	31
26	55	-64	443	31
-32	111	-207	-67	31
46	202	-279	-27	31
20	228	84	174	31
-350	161	57	86	31
-793	16	-328	246	31
-362	-106	-386	6	31
487	-175	-59	53	31
205	-15	111	217	31
97	160	-245	50	31
-162	129	-284	-277	31
-483	194	9	10	31
467	141	37	267	31
626	-27	-37	-54	31
299	-141	39	24	31
354	-423	139	-179	31
204	-441	131	-307	31
195	66	224	-295	31
4	419	347	-274	31
-124	396	453	-4	31
-57	107	378	186	31
-249	-427	148	136	31
-222	-593	170	42	31
-86	-357	306	327	31
-101	-77	363	497	31
-131	109	172	756	31
-116	94	-307	293	31
9	117	-599	-495	31
155	97	-654	-268	31
127	80	-640	-101	31
-147	109	-279	-300	31
-81	91	-19	54	31
86	86	7	761	31
34	45	27	236	31
36	1	-327	-190	31
-16	-45	-500	325	31
-70	-22	-360	47	31
-122	21	-193	-360	31
-73	28	27	-302	31
-35	46	304	-457	31
-61	71	461	-500	31
-39	101	443	-382	31
-67	142	789	-578	31
-7	210	967	-444	31
38	154	607	-176	31
54	49	78	209	31
95	-39	-491	1161	31
66	-206	-697	1062	31
24	-195	-480	495	31
-20	81	-171	-97	31
31	235	142	-550	31
72	132	310	-225	31
12	46	351	-235	31
-54	-80	255	8	31
-65	-229	-163	78	31
4	-204	-271	-40	31
-34	-129	-122	-34	31
-91	-26	-277	-78	31
-2	33	-363	19	31
-19	5	-270	-89	31
-9	-3	-82	-107	31
66	-25	155	-287	31
-123	-31	136	-397	31
-259	-20	-45	-180	31
-81	-14	-154	239	31
273	49	-126	696	31
358	199	292	756	31
189	296	793	347	31
214	229	683	129	31
77	-82	156	192	31
-202	-456	-503	-242	31
-152	-350	-834	-457	31
57	-85	-468	65	31
31	-45	-62	-30	31
-33	2	51	-752	31
-9	52	63	-513	31
20	61	63	550	31
-37	36	201	883	31
-72	114	655	211	31
50	374	1015	-67	31
-37	746	570	-9	31
22	888	-305	-209	31
-14	455	-985	-255	31
-479	-286	-1116	-180	31
-1016	-850	-475	-4	31
-826	-1005	29	132	31
-1	-666	-220	47	31
290	-260	-192	-50	31
741	-202	231	44	31
861	11	355	435	31
521	226	353	412	31
259	292	210	-227	31
-248	343	71	-424	31
-176	202	2	-482	31
242	84	65	-196	31
433	-147	204	-107	31
242	-263	174	-228	31
-6	-281	59	-49	31
65	-293	-92	-150	31
-32	-2	71	22	31
-452	185	353	-137	31
-322	152	176	-318	31
343	101	4	-406	31
383	84	388	-327	31
202	210	531	35	31
7	369	433	384	31
-122	315	290	656	31
-41	-99	-388	544	31
-201	-511	-789	894	31
-122	-428	-1014	1028	31
-86	-152	-1202	120	31
-161	23	-822	-320	31
-12	91	-311	-85	31
83	44	268	-136	31
92	-10	781	359	31
69	-10	575	444	31
54	60	215	307	31
-29	137	1	282	31
-41	236	-294	-379	31
-66	241	7	-337	31
-71	71	766	-224	31
-91	54	1300	-324	31
-143	107	1223	-395	31
-37	24	411	-525	31
-44	-12	-701	-563	31
-87	-31	-1408	-357	31
-56	22	-1218	-115	31
-29	155	-551	-467	31
-31	232	149	-280	31
-11	205	463	320	31
38	-11	499	439	31
94	-432	367	184	31
126	-609	-64	-3	31
22	-229	-205	557	31
23	58	-685	344	31
86	106	-767	-202	31
-13	174	-21	-432	31
-81	149	-22	-1028	31
-117	152	-373	-593	31
-115	194	-84	233	31
-26	187	220	1270	31
-2	61	392	1086	31
-46	-83	437	604	31
-46	-172	-138	736	31
95	-166	-759	-222	31
182	-13	-696	-485	31
202	-2	601	-461	31
179	-96	1375	-121	31
-12	-116	923	-204	31
16	-46	227	-112	31
36	364	-975	317	31
-67	950	-613	-270	31
-24	957	1805	-692	31
-44	317	2142	-983	31
-16	-626	434	-301	31
-57	-1525	-714	625	31
-71	-1239	-2023	750	31
-19	-335	-1847	664	31
-79	36	-680	618	31
-71	238	-327	423	31
-101	165	165	259	31
-13	82	42	-255	31
109	19	79	-577	31
135	-46	595	54	31
91	49	530	165	31
-19	127	172	132	31
21	280	119	-149	31
22	205	342	-515	31
-55	116	952	-502	31
-24	112	1152	-425	31
29	99	441	57	31
-121	89	-29	673	31
-182	-260	-699	320	31
39	-453	-891	-154	31
4	-255	-415	63	31
-13	-62	-280	-59	31
44	114	61	19	31
18	154	412	-404	31
71	84	475	-505	31
37	63	311	-52	31
88	-1	249	82	31
47	-12	37	765	31
-7	60	-458	1036	31
58	227	-738	522	31
143	355	-552	-398	31
168	273	-77	-1344	31
-96	115	-14	-650	31
-215	-207	-265	28	31
-215	-312	-318	-290	31
-250	-167	-14	424	31
-196	-106	297	293	31
-110	67	271	97	31
54	117	-768	320	31
166	49	-791	234	31
200	35	168	-507	31
139	-13	101	-1059	31
226	26	350	-565	31
295	185	368	-164	31
114	366	833	641	31
114	380	1115	1061	31
91	194	375	619	31
10	-206	54	-502	31
41	-558	-827	-247	31
-44	-547	-1827	545	31
-182	-367	-1134	169	31
-215	-155	535	-79	31
-65	-56	1516	157	31
116	24	1348	65	31
-6	154	400	-661	31
-166	136	-174	-798	31
-51	72	34	-94	31
-24	32	-37	808	31
-81	71	-1942	759	31
-34	101	-3331	282	31
-14	70	-1433	439	31
71	56	790	56	31
149	49	1240	-342	31
134	64	726	-37	31
11	16	337	-197	31
-74	-56	1020	-58	31
-25	-70	1194	-20	31
-41	-56	1049	-59	31
48	-33	1254	-257	31
61	87	1089	-528	31
-87	312	432	500	31
-93	329	-879	262	31
-81	250	-1830	-121	31
-32	122	-2250	509	31
47	-273	-552	738	31
68	-511	43	617	31
-112	-406	-23	233	31
-152	-152	1123	-465	31
151	-5	-194	-1179	31
150	54	-349	-938	31
17	130	-41	-617	31
23	99	302	141	31
-43	112	810	155	31
-9	112	380	-543	31
47	79	496	-590	31
-122	47	131	-237	31
-365	-24	149	601	31
-260	-46	854	926	31
-13	-59	1922	809	31
39	-51	1158	453	31
112	-16	-599	-540	31
109	10	-1963	-2043	31
78	-3	-2397	-1648	31
126	-2	-796	334	31
70	-6	136	1525	31
21	-56	448	2044	31
6	-31	498	1590	31
12	16	152	-280	31
47	73	-641	-1024	31
5	199	-1395	-38	31
-29	355	-1003	-597	31
-16	431	-88	-308	31
-12	286	57	27	31
7	11	60	-289	31
-9	-473	339	100	31
-30	-764	250	48	31
-24	-320	606	300	31
6	54	686	-139	31
54	155	716	-91	31
78	257	634	96	31
104	114	-71	-286	31
162	7	-457	-654	31
104	-149	-693	-346	31
-22	-214	-914	739	31
-36	-56	176	1176	31
-94	-109	1316	366	31
-139	-140	1163	-30	31
-187	-20	608	1034	31
-122	138	-35	1084	31
56	220	13	-63	31
-46	229	-496	-1034	31
-66	275	-1071	-838	31
94	59	-654	-329	31
106	-180	227	33	31
74	-347	1004	-111	31
49	-451	310	-588	31
55	-147	-934	-721	31
61	-7	-904	-327	31
19	-60	-109	974	31
16	38	639	1232	31
67	66	1258	-448	31
14	92	1210	-948	31
-117	81	603	-479	31
-87	47	-389	-1272	31
-12	-1	-159	-676	31
-69	4	348	306	31
-216	67	-913	1741	31
-243	88	-1609	2422	31
-69	193	-1079	612	31
1	197	-218	-74	31
62	23	316	-1034	31
11	-96	51	-1018	31
-150	-44	-38	-489	31
-37	53	-170	-690	31
14	60	-395	417	31
-42	49	-352	1047	31
-75	84	81	373	31
119	94	523	-344	31
346	36	472	-66	31
179	38	877	-196	31
172	31	1308	-109	31
71	-6	645	312	31
-81	24	-257	-137	31
3	-24	-507	-1201	31
-89	-76	157	-933	31
-24	-63	388	406	31
6	-77	-231	830	31
23	-29	-643	1530	31
49	45	-852	1341	31
-41	47	408	109	31
21	80	518	35	31
41	64	-533	-189	31
11	-41	-880	-835	31
-11	-72	-1511	-327	31
-3	94	-729	-706	31
-52	481	-234	-262	31
-84	638	368	24	31
41	337	946	-202	31
22	-308	593	491	31
-127	-910	94	-782	31
-155	-817	254	-1053	31
-156	-320	1340	-1034	31
-145	1	984	-567	31
-54	21	291	1444	31
7	32	-209	1532	31
98	124	372	308	31
190	190	978	-764	31
209	253	-786	-1238	31
164	145	-1924	-230	31
115	7	-1657	1524	31
95	-132	-703	1354	31
-21	-129	360	-375	31
-38	27	711	-936	31
-54	-84	452	6	31
-156	-225	-941	1885	31
-88	-66	69	1994	31
-87	270	1761	74	31
-173	352	1360	-784	31
-52	85	304	-1249	31
89	-250	-936	-929	31
149	-259	-687	-806	31
156	47	-565	-810	31
188	82	229	-137	31
175	28	1005	234	31
74	88	190	646	31
117	54	-703	677	31
5	37	-1566	601	31
9	91	-1150	680	31
169	97	217	609	31
41	160	636	670	31
-116	240	-373	-162	31
-244	121	-400	-1434	31
-262	19	621	-1026	31
-227	-147	784	-1149	31
-207	-292	240	-872	31
-114	-284	-164	475	31
48	-239	106	1015	31
165	-62	504	911	31
197	27	604	317	31
191	146	223	-118	31
189	235	566	-167	31
243	126	726	177	31
147	42	-75	164	31
-29	-102	-14	252	31
-73	-165	743	-129	31
10	-115	1107	-620	31
-7	-62	-281	-537	31
-96	21	-1800	-402	31
-61	22	-1443	415	31
-86	47	-1397	154	31
-74	73	-1157	-369	31
-40	72	-729	560	31
-13	66	-688	-62	31
44	18	774	-503	31
50	26	1488	11	31
72	97	1674	-182	31
67	227	1151	-33	31
-66	235	-43	-1384	31
-143	82	-92	-1426	31
88	-192	177	579	31
84	-481	616	2035	31
-119	-317	186	2060	31
-79	9	608	14	31
-121	60	1453	-1078	31
-127	92	-64	110	31
-126	147	-2270	1851	31
-78	220	-2379	1162	31
26	298	-627	-302	31
37	167	854	-1224	31
93	-60	383	-1287	31
95	-108	-690	-245	31
182	-11	-1050	-460	31
259	170	-1293	-516	31
24	398	-1000	-219	31
-171	147	85	157	31
-74	-438	903	677	31
-103	-465	322	1005	31
-114	-296	433	621	31
37	-314	1061	139	31
48	-255	1278	119	31
65	-111	969	-581	31
2	42	380	-758	31
-31	12	69	-96	31
60	-3	-338	28	31
89	109	548	-821	31
-41	211	999	-870	31
-147	262	810	348	31
52	198	473	1464	31
89	53	-889	1096	31
69	-263	-1364	-1034	31
81	-352	-468	-1663	31
17	-34	341	-1003	31
107	59	246	1197	31
36	28	-460	3280	31
-77	126	-1987	1128	31
-116	129	-1724	-357	31
-123	101	184	-939	31
-89	101	558	-1445	31
-80	67	241	-570	31
-111	27	-112	-40	31
-177	6	-442	131	31
-132	14	-386	-365	31
-37	35	238	135	31
9	37	790	-181	31
54	18	614	-517	31
101	7	683	-69	31
127	-6	1398	-146	31
173	-21	1381	540	31
176	9	581	377	31
55	89	-480	274	31
18	175	-1158	282	31
26	149	-628	340	31
-86	27	-541	575	31
-90	-119	-12	44	31
-103	-204	315	-139	31
-117	-174	26	-660	31
-72	-112	70	-516	31
-129	4	-539	210	31
-79	58	-538	96	31
-19	39	-304	-106	31
59	33	-441	-147	31
-199	1	-657	46	31
-660	46	139	31	31
-410	110	919	86	31
200	192	4	203	31
364	220	-723	200	31
571	3	-499	165	31
755	-384	492	-653	31
294	-475	957	-1099	31
25	-119	255	520	31
22	86	-11	988	31
-100	148	125	-117	31
-159	235	151	8	31
-136	250	-368	-129	31
-129	238	-355	341	31
-147	165	241	-65	31
12	-62	289	-435	31
89	-337	361	226	31
58	-296	199	-459	31
36	-293	61	-6	31
21	-317	92	250	31
87	-43	207	272	31
38	49	297	41	31
-73	40	375	-244	31
-99	61	168	142	31
-119	12	-103	-26	31
-168	41	-129	-179	31
-72	69	-580	-503	31
-17	62	-482	-578	31
-26	26	-169	-614	31
52	36	53	458	31
44	144	288	1392	31
35	222	238	1024	31
116	240	329	1121	31
128	242	-147	548	31
74	186	-601	-618	31
119	34	-402	-753	31
94	-47	-101	-86	31
122	-65	-132	-260	31
143	-15	-174	-369	31
-36	116	82	-96	31
-57	-52	-84	-334	31
-61	-524	-211	-486	31
-72	-579	-178	-407	31
-138	-144	57	-126	31
-112	43	448	7	31
62	200	286	-137	31
-27	377	53	-252	31
-46	249	14	475	31
-124	202	-197	1224	31
-152	130	-360	1054	31
54	-92	-191	295	31
136	-220	-68	-343	31
299	-264	77	-660	31
108	-380	640	-781	31
-398	-401	1513	-9	31
-620	-110	704	724	31
-583	79	-1465	222	31
-430	80	-1279	-207	31
32	134	-209	7	31
518	233	91	-296	31
680	387	338	-9	31
859	513	242	22	31
542	460	77	-176	31
219	130	-255	-146	31
219	-413	-137	-251	31
35	-830	302	54	31
126	-571	259	36	31
117	-36	81	202	31
-92	64	308	111	31
-66	56	188	120	31
-22	66	-65	-50	31
38	39	425	-679	31
-35	52	952	-746	31
-658	34	809	-442	31
-824	19	-20	294	31
31	26	-822	811	31
472	117	-1385	149	31
235	317	-753	-191	31
201	555	161	187	31
166	646	85	254	31
-31	400	184	623	31
-55	-149	22	275	31
-32	-849	-157	-349	31
-42	-953	47	-159	31
-24	-232	17	175	31
-37	104	-268	-26	31
-18	-12	-494	-525	31
25	49	-36	-709	31
-90	196	192	-414	31
-219	386	236	520	31
-122	372	717	1428	31
44	179	556	1219	31
158	-152	220	-68	31
-54	-364	-232	-492	31
-370	-254	-680	-605	31
-339	-84	-360	-966	31
-125	91	132	-390	31
53	46	636	612	31
34	-168	569	1061	31
17	-246	-271	311	31
177	-74	-928	-983	31
367	54	-934	-1459	31
290	62	-309	-733	31
67	97	523	871	31
88	74	932	2243	31
112	112	511	1074	31
54	107	17	-77	31
-47	85	-172	130	31
-606	71	-280	-611	31
-1136	27	45	-295	31
-830	28	340	-173	31
-156	-7	309	-249	31
560	11	198	-110	31
979	42	6	-733	31
454	46	-438	-478	31
137	68	-713	613	31
100	57	-287	998	31
-392	29	-57	-318	31
-131	-10	2	-605	31
622	-31	227	-442	31
771	-17	-94	-640	31
414	-10	-245	-483	31
144	4	-64	-512	31
27	81	-2	299	31
46	190	174	328	31
112	207	272	-357	31
-234	164	312	-478	31
-359	145	307	-535	31
-254	68	367	-228	31
-137	-12	496	-24	31
4	-267	289	-72	31
-156	-817	-129	1133	31
-84	-710	-245	2214	31
-85	59	-220	1539	31
-608	338	-214	694	31
-1114	324	185	-489	31
-1332	177	434	-7	31
-828	-47	-52	266	31
87	-31	-592	-656	31
720	74	-884	-349	31
1219	219	-579	-806	31
1170	86	-47	-74	31
969	-199	-8	1066	31
652	-379	224	81	31
146	-342	352	-735	31
132	-74	279	-443	31
-112	33	-221	-492	31
-77	51	-682	7	31
184	53	-560	280	31
179	37	-77	187	31
-14	134	598	319	31
-345	252	810	279	31
-155	278	479	147	31
-52	215	-347	-665	31
-27	-6	-338	-657	31
-5	-248	52	-36	31
-101	-193	154	-87	31
-166	-105	178	-337	31
-218	82	3	-347	31
-137	307	136	-69	31
-195	146	5	345	31
-160	-52	-89	314	31
-116	-255	-5	395	31
-157	-309	156	471	31
-74	-86	615	-63	31
-112	59	1027	-247	31
-109	125	1137	-111	31
99	82	561	336	31
119	-29	-525	297	31
39	-141	-1537	-77	31
91	-141	-1984	18	31
-63	9	-1266	-1085	31
-172	62	62	-1367	31
1	50	741	-538	31
-51	61	856	284	31
-185	126	409	1543	31
-177	254	20	1273	31
-209	390	-251	477	31
-6	584	-361	53	31
56	438	83	-71	31
-177	-147	121	-193	31
-257	-584	127	-297	31
-58	-752	64	-211	31
282	-392	102	-191	31
-121	368	250	-129	31
-549	797	77	-401	31
-212	729	-29	-453	31
295	157	-25	-593	31
756	-589	219	-259	31
528	-1065	230	317	31
168	-1023	255	62	31
-60	-576	243	564	31
-408	14	-210	1211	31
-434	310	-363	770	31
-849	185	-75	640	31
-715	243	154	259	31
638	258	-138	-289	31
938	169	-691	-470	31
761	115	-630	-330	31
896	-28	14	319	31
603	-55	411	-2	31
448	-35	427	-108	31
224	28	212	-160	31
-146	72	107	-580	31
-512	162	202	-469	31
-971	354	110	-227	31
-1091	375	127	154	31
-741	194	351	-50	31
-337	62	305	76	31
611	54	106	319	31
648	11	-108	281	31
-734	94	-482	128	31
-765	157	-474	73	31
-5	-170	-349	-172	31
-490	-559	-475	-470	31
-779	-762	-374	97	31
523	-551	-87	-248	31
796	-49	-143	-457	31
-195	66	-250	152	31
141	185	-182	136	31
979	510	-202	-109	31
464	592	141	20	31
-260	469	360	-36	31
434	61	354	-208	31
1144	-590	283	-188	31
-294	-817	79	-176	31
-1116	-324	143	162	31
493	121	270	525	31
-295	262	363	642	31
-1615	302	293	610	31
161	233	30	430	31
2117	70	-85	-535	31
2028	-109	34	-1061	31
871	14	-166	-674	31
929	29	-413	364	31
423	-220	-275	1137	31
-556	-259	-90	114	31
-1262	-92	279	-108	31
-1147	-27	350	-39	31
-137	-43	89	-212	31
-372	53	-164	-157	31
65	70	-117	-595	31
765	143	173	-685	31
789	198	295	-680	31
578	100	392	-52	31
51	64	566	570	31
-49	66	643	1237	31
141	78	415	1184	31
78	68	538	122	31
-239	45	393	-90	31
-230	1	-328	675	31
-269	4	-1095	1119	31
-390	90	-1436	75	31
-851	224	-1133	-873	31
-956	290	-806	-1058	31
-618	214	-265	-434	31
-631	72	101	49	31
-193	-170	240	-213	31
88	-217	254	-319	31
189	-144	122	-464	31
642	-272	182	-229	31
558	-250	171	-18	31
157	-114	277	266	31
259	43	267	744	31
-74	359	-229	-199	31
-1019	596	-656	-585	31
-986	509	-791	-169	31
-106	154	-455	-320	31
-413	-439	387	-71	31
-497	-714	758	-277	31
1136	-47	677	183	31
1210	353	633	462	31
372	-84	297	-137	31
362	-636	58	-11	31
150	-958	-6	152	31
-30	-479	21	227	31
-56	26	354	0	31
77	13	473	-515	31
20	126	158	-50	31
-146	194	-37	596	31
-207	175	-141	1226	31
-238	95	-528	1388	31
-447	160	-498	-210	31
-1859	264	-295	-244	31
-4000	154	-165	280	31
-4000	34	140	-435	31
-1929	-39	2	-315	31
-162	39	-277	-402	31
2036	129	-305	-357	31
4000	262	-104	-224	31
3969	286	249	-280	31
2355	303	580	-190	31
1759	579	470	-113	31
1604	569	66	20	31
369	348	-114	229	31
-302	21	-252	544	31
501	-706	-142	22	31
899	-1042	42	-295	31
485	-787	-67	-126	31
234	-582	-55	-341	31
97	-229	19	-547	31
-513	57	-127	-332	31
-393	119	-74	299	31
212	181	-42	868	31
142	121	-224	1122	31
-205	162	-154	232	31
-473	263	-81	-450	31
-804	228	-124	-166	31
-285	175	-88	-564	31
13	191	200	-567	31
-1217	275	358	-270	31
-2272	322	83	-294	31
-1149	293	12	116	31
705	95	84	329	31
220	-390	177	234	31
228	-495	194	-203	31
772	-328	123	-775	31
111	-428	117	-1349	31
140	-273	72	-1033	31
392	-135	395	534	31
417	-131	601	2028	31
247	-27	371	2992	31
295	75	-5	1932	31
87	170	-262	-439	31
-416	137	-274	-687	31
-224	199	-167	-498	31
-205	195	68	-808	31
-152	95	209	-520	31
31	70	-13	-76	31
-329	8	-588	196	31
-1432	52	-649	302	31
-2665	40	-615	442	31
-2069	1	-713	39	31
-72	18	-328	-114	31
1272	2	-78	-710	31
1473	41	83	-1109	31
1538	32	317	-858	31
1325	46	395	315	31
664	100	376	1555	31
131	71	319	878	31
-395	24	116	-387	31
-315	-17	111	-574	31
307	-29	211	-619	31
588	-18	87	-605	31
562	44	9	51	31
560	134	-218	-561	31
-78	126	-300	208	31
-1079	37	-223	1058	31
-2054	-103	-215	464	31
-1747	-251	-147	493	31
442	-171	205	53	31
1496	14	596	-257	31
1240	12	560	-264	31
824	24	218	133	31
294	27	-207	-111	31
100	35	-64	-377	31
-188	142	316	-364	31
-205	187	345	-412	31
395	155	126	420	31
158	-42	-498	689	31
-1586	-245	-887	194	31
-2405	-278	-576	-798	31
-614	-124	-227	-526	31
1579	-43	75	81	31
1403	-129	223	-477	31
116	48	273	-88	31
-1150	249	532	239	31
-1500	424	686	294	31
22	707	416	404	31
1190	633	54	390	31
1410	27	-251	580	31
1038	-694	-600	204	31
172	-1030	-522	-126	31
-591	-722	-274	-392	31
-189	-210	-176	-718	31
871	-95	147	-434	31
608	-24	455	84	31
479	89	110	265	31
323	98	-1	809	31
-144	78	180	926	31
118	-36	-265	58	31
-82	-67	-580	137	31
66	-8	-620	-6	31
-43	36	-399	-868	31
-455	147	311	-472	31
-836	357	766	-106	31
-2254	340	635	-232	31
-2851	116	359	-31	31
-824	91	145	4	31
1716	59	-4	-36	31
1645	-4	-69	-15	31
1449	17	-66	7	31
1156	21	3	134	31
180	18	60	642	31
94	-34	42	379	31
-739	-14	-74	-348	31
-543	79	-162	-656	31
26	87	-151	-582	31
-63	26	-283	638	31
242	-73	-330	1026	31
722	-118	-141	-206	31
1092	-84	-36	-309	31
-426	-73	167	435	31
-1092	-59	268	399	31
-226	-27	74	-173	31
-66	1	33	-725	31
-44	57	148	-337	31
37	74	400	-229	31
-47	63	536	-142	31
-90	45	391	660	31
395	4	134	93	31
-53	-14	-21	-929	31
-540	-41	97	-950	31
-97	-80	309	-727	31
-756	-121	381	186	31
-1518	-100	-116	1617	31
-1001	12	-738	2184	31
-648	101	-916	635	31
199	81	-610	-1088	31
2172	7	-134	-190	31
1441	79	-533	-125	31
-392	232	-870	-464	31
-735	262	-516	186	31
77	114	-302	340	31
442	-139	34	89	31
-513	-300	208	-303	31
682	-209	179	-129	31
1006	-35	251	-299	31
423	-47	328	-454	31
4	-32	558	-491	31
-1024	-20	649	-113	31
-185	-52	397	328	31
384	-22	252	637	31
253	-17	149	915	31
497	17	47	152	31
645	17	58	-317	31
399	31	155	-331	31
188	46	229	-552	31
237	1	49	-670	31
50	-67	11	-197	31
-55	-100	-52	632	31
-92	61	-99	615	31
-209	207	-140	399	31
-339	187	-272	365	31
-326	76	-162	-64	31
-153	-53	-180	-182	31
91	-126	-130	-199	31
-107	-129	39	-211	31
-490	-85	358	-65	31
-1040	-37	758	-51	31
-1841	12	596	97	31
-591	36	204	146	31
986	107	-491	89	31
910	302	-1047	-373	31
864	577	-718	-981	31
202	736	-47	-776	31
-618	401	483	93	31
-701	-369	189	970	31
-372	-759	-498	1008	31
-67	-713	-798	139	31
330	-582	-244	-23	31
919	-163	483	-412	31
542	76	320	-810	31
19	192	242	96	31
139	315	267	-94	31
102	141	277	114	31
101	-42	262	517	31
-13	-192	129	-328	31
-138	29	1	-107	31
252	315	-154	353	31
232	192	47	161	31
-86	-35	40	-274	31
-9	-313	-68	-608	31
-586	-160	-71	-337	31
-1246	102	-126	308	31
-154	2	45	473	31
790	-102	21	211	31
323	-224	-1	625	31
213	-160	-56	526	31
-536	-42	-297	766	31
-1025	47	-222	1169	31
318	113	-175	111	31
857	83	-17	-228	31
131	136	607	-672	31
89	160	697	-787	31
249	244	100	-122	31
61	343	-225	-657	31
215	262	-334	-706	31
150	16	-311	-410	31
-54	-199	-154	-12	31
-209	-333	95	903	31
-94	-347	297	788	31
-90	-117	172	435	31
-298	16	-144	107	31
-35	-42	-232	-811	31
28	-28	-128	-479	31
-7	-31	-117	-252	31
4	-72	-146	-756	31
56	-2	-213	-214	31
121	124	78	54	31
-21	179	347	252	31
-261	104	190	-109	31
-549	41	22	-155	31
-423	28	-142	160	31
160	-1	-307	-15	31
219	54	-143	142	31
16	159	104	-16	31
468	270	-32	39	31
-104	257	75	435	31
-946	124	241	1074	31
-216	-137	170	106	31
-322	-510	138	-1040	31
-262	-367	-57	-968	31
1107	164	-91	-1086	31
1122	384	252	-59	31
643	359	413	1334	31
280	174	241	2229	31
-450	-302	24	1364	31
-1423	-675	-291	-303	31
-2344	-402	-519	-598	31
-1220	-16	-393	-669	31
457	47	-122	-502	31
1059	123	2	-250	31
1476	150	132	-274	31
1503	200	167	-237	31
1025	352	115	41	31
408	308	231	387	31
203	71	238	207	31
61	-244	212	24	31
59	-589	223	32	31
33	-446	81	139	31
-229	13	-238	171	31
-294	83	-352	76	31
-660	73	-375	76	31
-734	60	-422	-126	31
230	16	-75	-395	31
757	47	169	-633	31
477	103	566	-492	31
349	201	803	-504	31
64	169	433	-552	31
-112	52	81	-4	31
-105	-162	-120	850	31
-171	-245	-272	1261	31
-159	-3	-387	407	31
-239	115	-221	-81	31
-339	67	-222	-154	31
-495	80	-324	-169	31
-125	46	-242	681	31
460	29	-129	845	31
223	34	-32	-432	31
-196	28	37	-1034	31
-122	124	158	-598	31
-116	196	74	-653	31
-354	121	109	-17	31
-112	-5	-6	176	31
337	-72	-186	-768	31
-45	-165	55	-685	31
-274	-150	104	-161	31
290	-71	214	162	31
109	-65	387	867	31
34	10	288	830	31
46	-1	94	964	31
-468	-14	-204	1252	31
-505	30	-454	389	31
-96	71	-671	-29	31
290	224	-676	-419	31
47	348	119	-207	31
114	308	597	-139	31
438	164	293	-439	31
250	24	323	-7	31
-114	-117	341	-249	31
-241	-118	480	-250	31
63	-90	558	166	31
-304	-436	112	878	31
-1392	-572	-300	1344	31
-1311	-282	-417	213	31
532	-238	-340	-779	31
973	-134	-176	-515	31
517	17	-97	-335	31
889	-24	-158	-205	31
276	46	-185	-440	31
-9	77	-115	-467	31
37	76	81	-242	31
292	85	-43	-844	31
548	82	-155	-876	31
330	86	19	-568	31
179	44	-37	-28	31
-343	49	16	455	31
-274	140	245	247	31
36	285	449	56	31
186	337	488	282	31
102	207	79	300	31
-291	-102	-189	-2	31
-433	-420	-57	392	31
-511	-194	-26	624	31
-151	275	7	474	31
242	413	17	643	31
154	371	-255	202	31
179	101	-451	-104	31
187	-280	-330	24	31
109	-418	-101	-410	31
206	-327	47	-387	31
110	-152	12	-387	31
-254	152	-7	-176	31
-152	215	64	515	31
24	6	150	667	31
-90	-143	319	140	31
-98	-241	410	-245	31
-346	-28	310	-269	31
-227	108	36	-650	31
-381	79	-144	-608	31
-1360	35	-79	42	31
-730	-40	-206	845	31
709	116	-132	1023	31
821	111	330	504	31
798	-45	307	-187	31
548	-165	-9	-652	31
41	-218	-213	2	31
66	-137	-402	772	31
116	-43	-279	128	31
202	38	-110	-561	31
-124	36	-162	-394	31
-297	37	-49	-322	31
-375	68	77	-189	31
-1091	175	152	-23	31
-859	303	285	25	31
349	298	156	100	31
1069	214	39	30	31
826	-75	232	-2	31
220	-398	155	36	31
-116	-257	-36	167	31
-89	82	4	154	31
-736	82	-90	-269	31
-1951	-32	-62	-535	31
-472	-105	44	-464	31
962	36	21	-366	31
-354	340	-34	-101	31
-153	365	-207	840	31
809	215	-425	1555	31
1400	-66	-322	-44	31
1480	-408	11	-1056	31
523	-420	129	-278	31
280	-193	132	-515	31
-232	-54	183	-145	31
-51	-7	319	367	31
315	-59	611	314	31
-269	-113	610	91	31
-209	17	104	153	31
-11	195	-271	1033	31
-109	344	-718	966	31
-131	320	-713	-89	31
114	92	-52	-369	31
110	-285	-112	-19	31
66	-438	-247	-219	31
-233	-54	-137	-677	31
-241	153	124	-778	31
176	77	394	-439	31
125	24	56	-419	31
-79	-86	-27	-444	31
-615	-64	-18	-309	31
-651	-26	-59	-182	31
-52	-20	-7	338	31
215	29	-178	784	31
170	10	-187	333	31
289	6	294	11	31
181	24	903	90	31
-37	28	832	191	31
19	75	154	1075	31
90	146	-354	1039	31
170	194	-523	-253	31
-92	144	-393	-729	31
-44	11	-26	162	31
-54	-174	-25	366	31
-209	-236	37	-209	31
-156	16	320	-634	31
-270	202	210	-993	31
-147	166	141	-948	31
-92	270	167	-713	31
-86	429	-21	332	31
-36	431	-108	1054	31
34	242	-225	817	31
29	-287	-611	409	31
-11	-867	-528	109	31
109	-704	-180	216	31
-76	-148	-72	162	31
-450	-157	96	-169	31
-270	-187	122	-201	31
343	-84	142	-250	31
427	-74	195	-234	31
32	19	115	149	31
-837	12	92	469	31
-1247	60	81	307	31
221	89	159	-222	31
748	114	204	-250	31
-298	168	167	-257	31
228	79	170	-257	31
796	-1	132	-170	31
560	-19	91	-174	31
323	24	8	112	31
104	104	-89	277	31
230	139	-176	533	31
230	77	-175	303	31
202	49	-43	12	31
-235	57	63	324	31
-355	27	78	26	31
-521	66	207	-553	31
-1016	61	551	-650	31
-1017	19	525	-91	31
-283	21	169	349	31
523	-12	-294	277	31
-646	-17	-808	-122	31
-687	31	-694	-360	31
1054	75	-366	-489	31
1305	193	-299	-543	31
950	275	-246	6	31
648	157	-213	330	31
447	-155	-76	256	31
315	-498	93	173	31
112	-347	204	212	31
152	-9	164	21	31
199	-8	12	-126	31
54	26	45	-231	31
-36	175	62	32	31
-122	401	14	308	31
-329	387	-1	-58	31
-674	133	16	76	31
-750	-148	-27	59	31
0	-542	-142	-144	31
503	-538	-56	-179	31
65	-250	133	40	31
-37	-54	266	374	31
143	35	291	54	31
116	124	381	-39	31
35	243	467	115	31
-67	183	275	27	31
57	27	127	72	31
-62	-244	2	34	31
-209	-184	-71	1	31
-132	192	6	-180	31
-18	205	-113	-756	31
-44	93	-112	-553	31
-273	-61	-244	-39	31
-503	-242	-506	517	31
-603	-182	-49	1438	31
14	16	423	828	31
370	137	509	-97	31
49	255	421	154	31
-337	320	-314	375	31
-996	199	-789	492	31
-406	90	-480	199	31
998	-173	-438	-470	31
787	-384	-369	-405	31
473	-139	-14	-357	31
435	90	3	-1021	31
-713	66	-157	-906	31
-1271	6	-67	-225	31
-64	-114	169	173	31
952	-184	161	-153	31
591	-126	137	144	31
404	-69	287	427	31
124	20	368	-3	31
57	77	392	166	31
108	185	415	-148	31
-76	288	366	-402	31
134	183	177	-322	31
-52	-1	71	-59	31
-8	-226	-6	767	31
-81	-260	-131	981	31
27	-8	-189	81	31
189	159	-154	-362	31
-214	245	6	-382	31
-170	175	-218	-310	31
18	-71	-449	416	31
21	-263	-585	459	31
-113	-235	-786	-343	31
-169	-7	-320	-386	31
124	26	175	-61	31
81	8	169	-285	31
-666	4	187	21	31
-518	-37	289	344	31
195	77	211	262	31
82	322	113	232	31
59	587	31	91	31
84	536	-24	94	31
135	132	38	30	31
349	-637	112	12	31
303	-857	214	68	31
69	-235	174	-17	31
-224	-59	86	-162	31
-282	-22	136	-109	31
-117	49	207	157	31
-254	29	161	97	31
-490	126	124	34	31
-137	142	84	41	31
210	320	-74	-60	31
217	392	-67	-194	31
263	232	37	-360	31
120	35	96	-210	31
115	-110	9	-81	31
246	-217	-249	-9	31
-10	-240	-314	-59	31
-549	-143	-180	-191	31
-826	-286	82	68	31
-121	-360	450	367	31
352	-109	522	670	31
36	46	151	355	31
-139	116	-220	-412	31
275	286	-393	-345	31
654	354	-385	-299	31
267	264	-338	-275	31
272	103	-290	-188	31
157	-141	-75	-224	31
-24	-366	-4	99	31
32	-411	117	447	31
2	-165	314	928	31
159	18	498	1019	31
-154	24	733	147	31
-522	86	518	-647	31
-473	91	-17	-655	31
-26	99	-583	-157	31
90	95	-788	212	31
274	77	-202	4	31
323	66	228	162	31
-119	47	65	231	31
446	101	-92	-55	31
422	101	-286	-272	31
-128	70	-333	-429	31
-754	24	-227	74	31
-1311	-19	-102	12	31
200	4	104	-515	31
1227	50	210	-635	31
514	230	307	-715	31
413	497	340	-4	31
289	495	272	958	31
-56	142	177	1114	31
77	-408	-25	948	31
-13	-748	-46	467	31
130	-519	57	-36	31
97	-342	-177	-166	31
-443	-201	-360	-86	31
-521	91	-394	131	31
-222	64	-586	-314	31
-133	76	-490	-104	31
-16	145	-160	392	31
163	286	-177	-373	31
-14	340	-164	-704	31
-72	88	417	-763	31
32	-245	939	-475	31
-72	-497	651	-329	31
-131	-99	304	-967	31
66	265	134	-607	31
84	207	-161	385	31
-84	109	-173	790	31
-42	-257	-53	684	31
-80	-335	120	823	31
-187	-19	275	502	31
-826	119	179	-24	31
-1139	107	-146	83	31
298	160	-314	32	31
956	175	-294	58	31
280	68	-245	76	31
267	-71	-34	292	31
120	-189	142	95	31
208	-185	277	-132	31
318	-39	403	120	31
46	152	353	-277	31
136	240	194	-300	31
-4	222	-15	-137	31
-12	168	-301	-322	31
-12	126	-383	-357	31
40	219	-241	-77	31
142	380	-215	-11	31
-36	414	-175	-59	31
-57	17	-64	153	31
-117	-588	28	139	31
-119	-782	-26	203	31
-5	-490	87	-312	31
-144	-160	378	-599	31
-426	-112	413	-8	31
-359	-48	423	766	31
-7	-24	312	1077	31
162	5	-34	248	31
230	69	-241	82	31
318	32	-160	-194	31
125	145	-300	-684	31
-132	244	-358	51	31
-114	265	-22	467	31
-377	182	26	526	31
-219	-96	-194	458	31
312	-332	-17	251	31
215	-160	202	44	31
-9	101	-145	-357	31
-33	85	-279	-447	31
-71	126	-149	-292	31
-375	153	170	-336	31
-540	166	461	-539	31
-399	229	346	-417	31
-27	100	118	140	31
362	-131	-149	290	31
-422	-270	-206	-214	31
-1029	-324	-139	-174	31
274	-149	56	106	31
1205	56	199	-87	31
1074	-14	99	152	31
506	25	-32	122	31
-342	171	-107	-92	31
-263	320	14	-77	31
469	357	142	-167	31
398	139	102	-74	31
234	-208	-4	-11	31
377	-413	-107	207	31
-109	-69	-144	177	31
-8	239	-6	-132	31
57	132	77	-191	31
-53	-145	-111	-39	31
132	-465	-195	374	31
-25	-287	-39	748	31
34	172	94	553	31
-49	406	324	315	31
-15	373	462	429	31
-17	34	227	229	31
-106	-260	16	-174	31
-69	-327	-212	-879	31
-79	-76	-290	-988	31
-44	286	-223	-489	31
-200	237	-211	-198	31
-200	-19	-148	717	31
-128	-298	-261	888	31
-42	-379	-142	17	31
-39	-135	91	-393	31
-142	-8	134	-470	31
-173	105	191	-530	31
92	171	258	-638	31
277	104	577	-454	31
16	65	775	61	31
-22	-96	358	533	31
-73	-102	-127	1351	31
-6	49	-580	1750	31
22	179	-1072	189	31
-55	267	-739	-968	31
-49	144	-277	-1146	31
-232	-143	-164	-1252	31
-69	-363	167	-312	31
12	-127	313	187	31
14	120	135	564	31
102	74	-38	438	31
0	105	7	-58	31
20	165	-75	222	31
85	289	-52	95	31
156	293	-136	290	31
129	192	-312	400	31
75	-18	19	279	31
56	-370	216	343	31
-70	-358	341	153	31
-66	-159	280	-86	31
31	-56	216	-573	31
-41	7	330	-552	31
-112	111	323	-141	31
-66	210	345	-97	31
-98	135	121	71	31
-22	-48	-123	92	31
-32	-240	-131	-152	31
-182	-175	-46	-250	31
-9	145	-78	-300	31
131	265	-150	-216	31
121	179	-240	-252	31
127	-74	-140	334	31
50	-423	71	630	31
14	-325	278	-161	31
-14	17	370	-449	31
-23	187	314	-275	31
73	327	238	363	31
12	368	-364	528	31
-29	242	-508	502	31
-78	-132	-23	1111	31
-186	-410	36	377	31
-76	-340	-36	-498	31
-30	-151	-174	-262	31
-56	169	-240	-659	31
-54	405	86	-877	31
6	365	503	-882	31
27	44	538	-322	31
26	-388	144	784	31
101	-581	-380	1030	31
99	-294	-671	1063	31
106	-35	-237	497	31
58	-116	77	1	31
57	26	-335	193	31
66	270	-261	159	31
-123	383	-87	-51	31
-199	215	-71	-285	31
-49	-195	325	-199	31
-3	-339	464	-365	31
-32	-81	266	-838	31
-16	139	-154	-685	31
-29	67	-468	-1	31
31	56	-463	821	31
148	73	-169	670	31
117	45	205	-466	31
-51	30	591	-838	31
6	31	856	-831	31
-17	36	396	-695	31
-464	2	-350	327	31
-437	41	-646	920	31
207	49	-541	1116	31
422	71	-362	517	31
455	97	96	-879	31
169	56	468	-1	31
-203	151	349	134	31
106	303	116	-358	31
-33	430	-110	289	31
-91	526	-84	-102	31
-123	234	152	-4	31
-299	-287	323	-610	31
-67	-677	318	-229	31
74	-755	98	645	31
423	-191	11	451	31
338	301	127	284	31
117	292	-263	-224	31
36	82	-585	-316	31
-263	-433	-274	-321	31
-462	-724	219	-66	31
-454	-441	655	-161	31
33	-78	844	-240	31
289	11	977	-464	31
315	23	741	521	31
266	113	47	1930	31
-121	142	-819	958	31
-92	121	-1385	-324	31
127	192	-1578	-988	31
15	235	-1481	-726	31
42	135	-328	-186	31
143	106	654	-9	31
126	74	697	-79	31
79	105	796	372	31
-7	292	292	516	31
-21	368	-336	-184	31
-61	195	-457	-447	31
-161	-237	-440	-1086	31
-159	-591	-141	-1286	31
-57	-381	86	-803	31
-70	0	44	106	31
-82	12	7	621	31
6	13	458	670	31
-1	19	696	1120	31
-26	9	596	1373	31
77	76	290	901	31
107	103	-701	174	31
14	250	-1083	226	31
114	332	-591	377	31
79	183	-220	-84	31
2	-46	222	-718	31
-12	-327	426	-447	31
-86	-330	339	-745	31
-22	-6	408	-688	31
-61	171	200	221	31
-99	191	132	82	31
-113	71	184	111	31
-112	-42	79	162	31
-19	-81	406	27	31
51	-126	939	-207	31
55	-34	820	-367	31
41	-26	111	154	31
124	-155	-435	753	31
159	-155	-790	841	31
143	12	-641	520	31
123	-57	-357	-206	31
105	-271	137	-384	31
58	-346	1661	-529	31
32	-274	1701	-982	31
59	131	-129	-627	31
-24	446	-250	214	31
-158	498	-36	990	31
-270	481	-841	811	31
-187	375	-814	164	31
-154	250	-1099	-379	31
-258	109	-842	-415	31
-84	-54	-473	-212	31
18	-334	-732	-772	31
137	-453	-388	-1014	31
247	-127	504	-537	31
139	205	1740	2	31
127	106	538	-317	31
144	-205	-1779	-835	31
173	-453	-2790	-56	31
69	-405	-1017	1678	31
-33	-139	1706	2988	31
0	-27	1831	1494	31
29	3	1072	-466	31
32	69	-67	-324	31
-14	147	-237	-356	31
-99	235	-131	-748	31
-192	272	21	-687	31
-163	55	615	-427	31
-164	-112	319	-414	31
-109	-28	252	-52	31
38	-76	-49	92	31
40	-23	-225	152	31
36	81	-170	64	31
104	129	-74	32	31
126	161	19	111	31
99	111	1	-133	31
52	152	111	-130	31
2	96	-54	-312	31
-16	46	62	-239	31
-97	137	653	-111	31
-135	166	859	183	31
-32	83	415	523	31
-35	-140	196	670	31
-59	-402	-64	414	31
-23	-268	14	-18	31
-82	103	151	105	31
-169	107	-348	298	31
-182	33	-1306	102	31
5	21	-2061	-523	31
215	19	-408	-62	31
177	2	997	83	31
152	-107	232	-280	31
145	-107	-161	206	31
71	-112	219	520	31
-144	-42	654	243	31
-623	49	273	-432	31
-305	27	-101	-658	31
547	145	-127	-1241	31
433	348	-256	-1131	31
139	353	536	197	31
79	145	671	1090	31
-7	-136	61	843	31
143	-423	-99	436	31
89	-315	-214	1071	31
121	6	-611	986	31
251	-39	-762	260	31
200	-61	14	-466	31
7	-70	-270	-1503	31
-171	-154	659	-1686	31
-201	-51	2650	-516	31
-266	-7	1771	1302	31
-116	123	-358	1433	31
-85	265	-1207	394	31
-161	201	-2011	220	31
-161	201	-2011	220	31
-159	201	-1987	216	31
-156	200	-1963	211	31
-153	199	-1939	206	31
-150	199	-1915	202	31
-148	198	-1890	197	31
-145	197	-1866	192	31
-142	197	-1842	188	31
-139	196	-1818	183	31
-136	195	-1794	178	31
-134	195	-1769	174	31
-131	194	-1745	169	31
-128	193	-1721	164	31
-125	193	-1697	160	31
-122	192	-1673	155	31
-120	191	-1648	150	31
-117	191	-1624	145	31
-114	190	-1600	141	31
-111	189	-1576	136	31
-108	189	-1552	131	31
-106	188	-1527	127	31
-103	187	-1503	122	31
-100	186	-1479	117	31
-97	186	-1455	113	31
-95	185	-1431	108	31
-92	184	-1406	103	31
-89	184	-1382	99	31
-86	183	-1358	94	31
-83	182	-1334	89	31
-81	182	-1310	84	31
-78	181	-1285	80	31
-75	180	-1261	75	31
-72	180	-1237	70	31
-69	179	-1213	66	31
-67	178	-1189	61	31
-64	178	-1164	56	31
-61	177	-1140	52	31
-58	176	-1116	47	31
-55	176	-1092	42	31
-53	175	-1068	38	31
-50	174	-1043	33	31
-47	174	-1019	28	31
-44	173	-995	23	31
-41	172	-971	19	31
-39	171	-947	14	31
-36	171	-922	9	31
-33	170	-898	5	31
-30	169	-874	0	31
-28	169	-850	-5	31
-25	168	-826	-9	31
-22	167	-801	-14	31
-19	167	-777	-19	31
-16	166	-753	-23	31
-14	165	-729	-28	31
-11	165	-705	-33	31
-8	164	-680	-38	31
-5	163	-656	-42	31
-2	163	-632	-47	31
0	162	-608	-52	31
3	161	-584	-56	31
6	161	-559	-61	31
9	160	-535	-66	31
12	159	-511	-70	31
14	159	-487	-75	31
17	158	-463	-80	31
20	157	-438	-84	31
23	156	-414	-89	31
25	156	-390	-94	31
28	155	-366	-98	31
31	154	-342	-103	31
34	154	-317	-108	31
37	153	-293	-113	31
39	152	-269	-117	31
42	152	-245	-122	31
45	151	-221	-127	31
48	150	-196	-131	31
51	150	-172	-136	31
53	149	-148	-141	31
56	148	-124	-145	31
59	148	-100	-150	31
62	147	-75	-155	31
65	146	-51	-159	31
67	146	-27	-164	31
70	145	-3	-169	31
73	144	21	-174	31
76	144	46	-178	31
79	143	70	-183	31
81	142	94	-188	31
84	141	118	-192	31
87	141	142	-197	31
90	140	167	-202	31
92	139	191	-206	31
95	139	215	-211	31
98	138	239	-216	31
101	137	263	-220	31
104	137	288	-225	31
106	136	312	-230	31
109	135	336	-235	31
112	135	360	-239	31
115	134	384	-244	31
118	133	409	-249	31
120	133	433	-253	31
123	132	457	-258	31
126	131	481	-263	31
129	131	505	-267	31
132	130	530	-272	31
134	129	554	-277	31
137	129	578	-281	31
140	128	602	-286	31
143	127	626	-291	31
146	126	651	-296	31
249	41	1192	-710	31
133	-41	1479	-831	31
-121	-36	495	-905	31
-126	4	-565	-492	31
5	92	-475	843	31
-95	108	971	983	31
-259	106	516	633	31
-104	144	-1269	227	31
58	119	-1070	-272	31
23	91	-184	365	31
47	97	-347	-90	31
-29	42	-841	-604	31
-46	-36	-182	-557	31
165	-67	488	-905	31
224	-86	289	-1079	31
104	-62	551	-796	31
3	-27	799	1232	31
-93	17	572	1650	31
-149	37	597	1061	31
-120	17	-194	1412	31
-232	70	-1435	786	31
-216	71	-1365	-222	31
-86	-26	-452	-1770	31
-116	-99	718	-1378	31
-94	-116	736	-56	31
-80	-93	1094	672	31
-106	-56	1736	911	31
-114	7	713	64	31
-52	1	-790	197	31
-8	47	-1252	271	31
49	197	-565	375	31
219	249	-563	-99	31
322	198	-333	-1036	31
287	-23	77	-1328	31
169	-353	872	-871	31
112	-383	2333	389	31
82	-112	1431	818	31
-26	12	-858	245	31
-143	-67	-428	283	31
-56	-45	397	1379	31
-16	51	-1268	1049	31
-221	38	-2353	-676	31
-212	164	-1606	-1582	31
-11	325	4	-439	31
205	332	230	950	31
309	278	45	-298	31
224	132	413	-998	31
168	-29	141	378	31
47	-278	172	866	31
-52	-341	518	350	31
16	-194	586	-206	31
13	-179	808	-1234	31
-22	-125	931	-2338	31
-28	56	-395	-262	31
-59	373	-1446	2935	31
-72	532	-891	2071	31
-27	304	311	-695	31
-27	51	350	-516	31
-191	-295	-843	639	31
-312	-578	-1469	-247	31
-171	-456	-1223	-838	31
88	-159	1300	-1048	31
214	-36	2922	-290	31
41	-74	1716	94	31
-189	94	378	901	31
-131	90	-183	1946	31
-73	-54	-316	-153	31
-4	72	-1094	-910	31
168	71	-941	-284	31
172	-66	-14	964	31
-104	8	-43	930	31
-367	149	47	-422	31
-138	122	663	-99	31
4	119	1323	-871	31
-352	106	445	-1292	31
-454	96	-1212	-467	31
227	101	-1059	87	31
964	19	194	30	31
798	4	829	-345	31
418	-40	390	160	31
273	-37	-240	380	31
99	-42	-310	399	31
-31	-49	-390	339	31
-136	7	-255	330	31
-155	-86	336	314	31
-136	-134	243	-39	31
-149	-62	-450	206	31
-347	4	-578	64	31
-843	113	-506	-735	31
-1251	179	-888	-632	31
-935	74	-324	-389	31
101	-13	414	-494	31
914	-22	50	251	31
797	6	-275	477	31
549	35	-12	445	31
632	-12	579	558	31
485	-15	842	961	31
362	-4	709	478	31
213	-3	608	-1175	31
6	-22	958	-1138	31
-65	-41	1360	-1009	31
-219	-3	877	-1083	31
-174	11	-1166	92	31
-104	29	-2927	2405	31
-193	42	-1763	2973	31
-249	46	-362	259	31
-435	60	78	-840	31
-634	62	833	-920	31
-516	51	297	-730	31
-110	79	232	-530	31
152	157	855	-1242	31
334	104	904	-667	31
421	19	978	-23	31
113	53	424	880	31
-502	129	-224	647	31
-1013	185	-17	250	31
-313	-41	758	-86	31
896	-581	541	-834	31
1111	-726	-255	-336	31
840	-336	-740	390	31
353	-24	-726	1316	31
-287	71	-493	364	31
-800	52	-372	-880	31
-1176	129	-146	137	31
-762	156	-1459	951	31
498	119	-2045	1289	31
1118	121	-852	284	31
754	-43	408	-290	31
535	47	909	226	31
537	210	488	-256	31
379	267	545	-633	31
177	439	129	-1262	31
-91	311	200	-424	31
-255	-27	18	165	31
-274	-548	-11	-22	31
-292	-772	420	-229	31
-124	-342	527	-1231	31
-147	-127	1109	-841	31
-274	-135	751	671	31
-32	-53	-412	1848	31
344	84	-1332	831	31
433	159	-433	19	31
12	101	656	54	31
-9	66	679	293	31
-21	49	553	382	31
-539	72	-92	-259	31
-603	90	-23	-625	31
-131	87	238	-417	31
450	76	293	291	31
417	52	321	17	31
121	42	-90	-225	31
14	28	-252	-756	31
-23	49	-507	-508	31
-7	54	-430	-460	31
-129	12	165	-564	31
-150	0	98	266	31
-145	39	-678	429	31
-162	48	-982	1196	31
-215	43	-548	451	31
-285	47	-274	-70	31
-365	54	-32	102	31
-531	114	192	-295	31
-240	135	455	-466	31
514	68	581	-1168	31
402	-1	21	-385	31
-352	-81	-56	309	31
-300	-145	151	548	31
-147	-124	-69	599	31
-496	-66	326	314	31
-1441	-22	496	-54	31
-1913	-22	518	-2	31
-386	-36	596	896	31
1272	-16	-399	1076	31
1763	-22	-1047	-89	31
1697	-49	-859	-888	31
1351	8	304	431	31
1066	158	1298	1009	31
635	257	556	-297	31
-132	292	-962	-1931	31
-916	331	-1152	-955	31
-701	72	-450	945	31
230	-35	-402	596	31
695	523	109	174	31
756	952	67	-357	31
373	742	22	-154	31
77	60	558	-72	31
-192	-1007	425	-531	31
-649	-1888	54	-52	31
-576	-1525	-205	332	31
-183	-726	58	-30	31
208	-245	336	-185	31
122	285	457	579	31
-277	302	413	388	31
-191	177	120	233	31
-502	-95	139	121	31
-1075	-325	325	-359	31
-543	32	563	-114	31
593	190	595	-385	31
943	159	445	91	31
414	140	-51	981	31
16	129	-760	820	31
-93	163	-1037	-191	31
94	195	-1383	-1465	31
485	200	-1301	-981	31
314	144	-428	-76	31
164	142	320	-397	31
75	97	552	-345	31
-129	52	891	-725	31
-74	49	946	-408	31
-150	167	-369	1001	31
-76	414	-1350	1886	31
-12	488	-756	1179	31
-23	570	47	-112	31
-3	554	27	204	31
-74	57	225	-231	31
-76	-533	246	-265	31
-130	-937	249	-51	31
-147	-689	430	-219	31
-168	-159	189	-57	31
-139	-61	313	-126	31
-160	30	203	46	31
-234	-11	230	-71	31
-160	-2	185	-68	31
-156	41	106	-157	31
-111	-9	254	-136	31
35	54	299	-94	31
57	4	491	-224	31
13	6	342	-192	31
42	-2	-92	-167	31
12	17	-557	-268	31
-63	36	-729	-43	31
-126	61	-660	450	31
-59	254	-239	921	31
-51	335	208	1232	31
-123	276	96	-36	31
39	116	9	-702	31
-328	-123	69	-103	31
-554	-402	127	-33	31
47	-416	388	-150	31
172	-110	332	-139	31
-49	37	-174	-32	31
-191	229	-247	-211	31
-172	555	-355	-729	31
379	556	-61	-807	31
803	396	356	-304	31
728	-53	99	-49	31
502	-787	3	738	31
317	-669	-96	790	31
114	-216	-42	-32	31
-117	-335	120	-57	31
-334	-175	219	-518	31
-755	112	144	-211	31
-885	153	72	1397	31
-257	164	13	1102	31
389	-38	-160	-2	31
526	-171	11	-234	31
-40	-99	-2	-662	31
-1173	-109	-329	-331	31
-1684	-65	-597	-188	31
-16	106	-739	523	31
2160	117	-674	686	31
1345	131	1	-322	31
-280	187	785	-257	31
-656	108	816	-233	31
-706	71	531	-295	31
344	65	272	-187	31
1351	71	-32	87	31
1141	77	-389	187	31
801	72	-418	17	31
573	49	-62	-134	31
86	21	278	-222	31
-129	33	294	-159	31
-185	33	116	157	31
-252	29	-54	591	31
-105	0	-502	149	31
-136	14	-525	19	31
-164	36	26	-117	31
-197	7	267	-493	31
-179	-33	378	-197	31
-65	-80	619	-459	31
-175	-72	612	-510	31
-196	-80	362	-758	31
-121	-57	68	-296	31
-287	-3	-407	1664	31
-312	9	-984	2151	31
-190	24	-353	1117	31
-192	42	809	682	31
-24	57	561	20	31
12	52	-33	-151	31
-460	60	-1011	631	31
-1500	108	-1677	-937	31
-2198	203	-709	-2116	31
-1618	245	537	-993	31
245	134	692	-605	31
1981	-20	-43	-120	31
2093	-270	-642	38	31
1683	-416	-805	-434	31
1013	-197	-26	-132	31
419	-25	600	135	31
172	86	535	630	31
11	292	591	415	31
126	285	437	174	31
-104	119	357	290	31
-341	-98	224	-41	31
-239	-388	-49	-109	31
-17	-432	-139	-87	31
-51	-30	64	202	31
-352	501	480	-5	31
-633	769	982	-196	31
-856	789	894	-167	31
-755	380	15	359	31
-57	-622	-717	732	31
655	-962	-1326	-173	31
445	-433	-1127	-520	31
-247	-322	-86	-240	31
-628	-318	476	-77	31
-488	-257	445	76	31
-195	-313	350	82	31
437	-213	274	-6	31
748	-78	156	-56	31
488	79	178	226	31
437	183	146	353	31
-118	202	41	-133	31
-775	125	-82	-266	31
-472	34	-194	-167	31
982	114	-213	-422	31
1415	291	-255	-151	31
460	413	-269	164	31
279	328	-185	182	31
-143	46	-94	439	31
-996	-268	114	204	31
-550	-393	271	-99	31
424	-150	146	-373	31
272	210	-47	-275	31
198	219	-333	356	31
-166	234	-273	493	31
-1307	516	290	-132	31
-1660	934	618	-280	31
-1970	1219	245	53	31
-2034	707	-292	630	31
-1669	-132	-384	2026	31
-824	-1057	-525	865	31
-868	-1780	-573	-338	31
-1129	-1438	-200	-592	31
1322	-806	108	-1381	31
3826	-255	294	-530	31
3723	127	261	-209	31
2172	135	-87	451	31
2547	162	-156	355	31
2253	111	41	-637	31
1114	31	31	-686	31
951	71	82	-302	31
-21	257	345	498	31
-101	426	255	189	31
-337	387	-41	221	31
-460	242	-96	46	31
-340	21	-18	-528	31
-426	-91	250	-307	31
-374	-12	558	-72	31
-500	-17	605	436	31
-271	-293	339	512	31
-403	-459	124	364	31
-428	-130	-125	350	31
-389	97	-367	231	31
-294	55	-518	-97	31
-233	87	-638	-488	31
-392	64	-190	-562	31
-264	72	-51	-405	31
-217	101	-301	-459	31
-397	118	-7	-808	31
-678	108	413	-432	31
-768	64	842	688	31
-588	74	1083	1196	31
-184	71	641	875	31
-122	132	-139	688	31
-115	250	-966	94	31
-117	320	-1200	-845	31
-963	262	-679	-801	31
-1506	41	-187	-654	31
-124	-242	265	-678	31
971	-287	184	-295	31
456	-57	87	846	31
432	1	384	1555	31
159	-4	323	180	31
-246	29	578	-951	31
46	-14	315	-987	31
351	-22	-904	-858	31
758	-76	-1153	534	31
599	-39	-673	1374	31
53	61	-216	485	31
-313	72	446	72	31
-427	47	503	243	31
-1517	-16	356	-41	31
-3520	-39	230	-117	31
-2314	-84	21	-260	31
1240	-19	3	-402	31
2825	126	81	-119	31
2139	97	175	176	31
1098	19	-235	521	31
829	-144	-433	81	31
652	-229	-428	-240	31
323	-17	-252	331	31
-1062	126	274	757	31
-1738	177	288	-272	31
-801	213	235	-733	31
-375	59	219	362	31
-1	-77	352	475	31
-1545	-318	867	-325	31
-4000	-471	1032	114	31
-1586	-76	424	921	31
4000	129	-676	83	31
4000	39	-1386	-310	31
2165	76	-1265	-134	31
1663	80	-878	-573	31
561	65	-308	-711	31
1131	62	322	-42	31
1065	282	501	-182	31
-876	525	452	-524	31
-898	470	326	-317	31
166	230	210	-202	31
101	-220	208	310	31
708	-684	171	262	31
926	-756	165	-294	31
-438	-307	446	-328	31
-349	164	692	-75	31
-41	310	419	280	31
85	235	-60	863	31
474	22	-548	455	31
219	-233	-856	127	31
-300	-459	-529	300	31
-523	-240	-94	-304	31
-1345	162	22	-402	31
-3615	262	124	-289	31
-4000	262	114	304	31
-59	250	26	355	31
2705	140	30	-212	31
2072	-124	62	166	31
1756	-204	126	213	31
956	-123	-25	82	31
513	-7	-102	-511	31
347	116	225	-442	31
-30	155	370	-349	31
86	215	333	-1062	31
-138	78	112	-802	31
-107	-161	-303	-224	31
-227	-399	-131	1317	31
-54	-236	327	2649	31
2	227	674	1745	31
-456	162	854	218	31
-193	-50	222	-216	31
-68	-222	-894	-190	31
-378	-175	-1799	-407	31
-437	71	-1604	-548	31
-156	48	-363	-800	31
-418	69	381	-297	31
-1100	28	380	565	31
-1041	-20	50	208	31
-713	59	-141	-906	31
-523	65	-77	-1161	31
106	56	4	134	31
1151	-24	51	803	31
1187	-67	174	275	31
584	-46	627	-36	31
455	61	749	-773	31
59	234	542	-1479	31
-279	210	486	-893	31
-25	69	595	-2	31
269	-5	608	828	31
-798	-78	236	1399	31
-1971	-89	-393	1431	31
-1745	126	-1192	1093	31
-350	284	-1546	-791	31
1534	188	-951	-1572	31
1239	-27	-171	-653	31
436	-378	162	-642	31
-122	-416	344	300	31
-205	-54	368	840	31
269	47	380	493	31
-1224	24	227	458	31
-1659	65	-2	-136	31
-2417	52	306	-127	31
-1378	27	769	-170	31
3112	-3	761	-488	31
2774	-10	164	-206	31
1457	-39	-511	-164	31
1647	-29	-1034	-48	31
111	-19	-781	109	31
-362	11	-141	285	31
82	49	-43	669	31
408	15	185	595	31
438	-12	195	-59	31
364	-31	164	221	31
462	-4	93	465	31
222	52	-374	-13	31
24	91	-267	131	31
71	71	188	-156	31
-102	19	299	-232	31
-321	-46	128	-83	31
-147	-86	156	-241	31
62	-105	169	-237	31
-96	-101	142	-232	31
-772	-1	127	-126	31
-1790	97	66	17	31
-1433	168	27	-32	31
786	153	-11	-199	31
915	104	134	117	31
-291	72	51	-81	31
-1006	7	30	-269	31
-2336	37	224	-575	31
-881	81	736	-837	31
1831	134	1249	-309	31
1622	96	823	-227	31
600	-62	-228	1031	31
248	-133	-1340	1659	31
289	-277	-1900	1016	31
656	-345	-1424	565	31
158	-131	-554	-763	31
-84	81	-226	-177	31
1	192	71	99	31
-1449	233	498	-718	31
-1453	132	482	-360	31
779	-62	342	-256	31
336	-231	188	673	31
-568	-232	86	820	31
-302	-71	-103	841	31
-241	-19	-271	1336	31
1072	-27	-31	805	31
322	54	-182	-1064	31
-179	79	-56	-2191	31
1058	77	320	-1515	31
451	40	76	-956	31
82	-11	223	-203	31
319	3	370	-1	31
574	96	269	164	31
200	208	29	256	31
-600	134	-220	353	31
-612	-85	57	482	31
-267	-392	377	239	31
169	-367	395	-17	31
-122	28	31	-243	31
-705	164	-257	-82	31
-918	158	-85	-232	31
-200	111	233	-194	31
921	52	234	284	31
939	41	27	-139	31
146	-22	-108	-667	31
-430	-19	-462	-110	31
-242	-11	-635	241	31
12	54	-366	1209	31
-25	94	-113	1086	31
488	64	136	-180	31
655	44	328	-113	31
58	-94	206	-434	31
14	-125	114	277	31
-85	-21	66	1166	31
-322	82	-277	-69	31
-88	193	-295	-1194	31
66	197	250	-254	31
-114	229	248	710	31
-191	169	-99	595	31
-115	-11	2	61	31
-189	-140	252	-62	31
-82	-377	302	528	31
-34	-447	46	427	31
19	-257	-285	59	31
96	-64	-435	-289	31
66	44	-199	-479	31
110	99	91	-670	31
-19	106	99	-786	31
-6	40	61	-612	31
292	-66	117	-279	31
51	-296	228	260	31
-728	-156	290	805	31
-513	172	336	425	31
49	128	302	-382	31
-163	76	242	-178	31
-515	12	213	-344	31
-274	-10	10	-651	31
-77	23	-237	-218	31
-1608	53	-333	-28	31
-1686	109	-26	429	31
1365	69	297	845	31
2092	54	-137	231	31
1001	75	-446	289	31
944	132	-530	370	31
249	122	-652	164	31
237	81	-368	364	31
76	62	-389	-49	31
-222	7	-154	-307	31
283	15	413	-285	31
47	4	472	2	31
-20	26	425	-226	31
-97	42	212	-434	31
-102	11	0	-607	31
-29	-9	-48	-800	31
-30	8	8	-3	31
-57	233	-29	617	31
-111	361	-129	545	31
-57	144	-99	-67	31
-1167	-167	-76	33	31
-2686	-569	-64	321	31
-1503	-594	-245	-162	31
1143	-133	2	-365	31
1793	-9	137	-92	31
1187	34	-56	-276	31
513	110	167	-559	31
284	37	334	-254	31
-257	106	427	566	31
-563	87	580	1342	31
143	17	731	1337	31
565	-58	645	864	31
258	-171	328	23	31
-1300	-139	51	-1184	31
-3912	-64	-177	-1092	31
-3323	7	-591	738	31
2249	50	-1217	1096	31
3874	-2	-1400	387	31
2097	7	-994	-587	31
2016	46	-302	-741	31
605	11	36	-538	31
207	19	-79	-801	31
-49	76	197	-465	31
-337	132	462	-451	31
17	162	501	-459	31
-382	237	337	-450	31
-29	311	6	388	31
-161	196	-203	777	31
-99	-109	-124	553	31
-16	-502	301	433	31
-176	-456	452	47	31
73	-39	415	-83	31
21	150	300	-177	31
-91	250	292	157	31
-942	203	170	568	31
-2002	106	-118	558	31
-1057	82	-145	-325	31
601	-21	-393	-572	31
643	-44	-348	-780	31
1009	-33	374	-1113	31
639	-184	631	-294	31
-39	-360	412	22	31
130	-148	495	1409	31
-188	176	425	2070	31
163	305	-307	692	31
-4	327	-1002	580	31
-184	88	-1112	387	31
256	-288	-997	-776	31
388	-515	-514	-798	31
-400	-259	27	-419	31
-572	68	395	-352	31
59	22	554	-348	31
-171	48	449	-486	31
22	69	460	-129	31
-92	52	305	3	31
-75	169	74	-30	31
-7	324	-136	101	31
-137	345	-147	-212	31
-125	182	17	-340	31
-267	-47	46	24	31
95	-377	101	409	31
22	-409	156	504	31
74	-129	169	323	31
82	23	196	368	31
-120	42	370	332	31
143	59	392	-6	31
47	104	-30	-317	31
-287	79	-457	-277	31
62	55	-668	-495	31
413	-2	-500	-612	31
-71	-64	149	250	31
-70	-6	373	328	31
171	8	27	-239	31
14	21	-370	-159	31
-88	67	-638	458	31
-66	39	-255	151	31
-104	6	305	-233	31
-239	-21	294	-24	31
-228	-24	205	-597	31
-191	7	283	-284	31
-79	12	325	250	31
-112	25	57	437	31
104	27	-347	100	31
391	11	-525	-167	31
615	1	-634	550	31
581	4	-146	636	31
64	12	392	178	31
-9	0	279	-317	31
-525	14	234	-524	31
-821	18	188	-466	31
-151	-16	165	-482	31
310	-20	202	-418	31
438	-14	32	-26	31
382	11	142	264	31
139	21	405	377	31
-141	-2	202	324	31
-179	7	-169	-133	31
-56	-2	-628	-127	31
-344	-31	-964	298	31
-503	-17	-491	965	31
177	69	189	459	31
373	205	500	-710	31
391	206	718	87	31
-102	51	859	910	31
-1061	-165	393	1294	31
214	-292	-491	1135	31
1204	-96	-980	204	31
446	61	-853	-1061	31
451	-5	-156	-1993	31
134	-91	68	-1097	31
-132	-143	-237	-345	31
28	-52	-149	242	31
-442	-9	-129	416	31
-898	36	-91	-424	31
-934	147	-29	-302	31
264	257	-13	72	31
632	322	163	409	31
-126	161	157	267	31
219	-178	164	-321	31
567	-360	185	-234	31
208	-25	236	-320	31
-176	252	352	-307	31
109	117	400	-53	31
265	-71	596	523	31
-121	-240	480	796	31
-111	-348	207	233	31
-61	-190	-13	-11	31
93	75	-329	-184	31
-212	40	-112	17	31
-1080	44	152	511	31
-572	22	160	-61	31
543	-162	24	-553	31
313	-169	-244	-417	31
95	-131	-195	-188	31
538	-9	-131	250	31
522	77	-73	192	31
-111	56	-2	-109	31
-490	107	22	-13	31
177	104	26	-160	31
76	51	14	-442	31
-197	38	60	-205	31
140	26	-57	17	31
-359	35	-185	-36	31
-561	9	-70	-231	31
-146	-24	115	680	31
-172	13	92	2397	31
-474	11	-167	1763	31
-1222	52	-505	-540	31
-2600	186	-291	-1297	31
-768	322	110	-1085	31
2525	348	157	-470	31
2323	185	32	290	31
1659	-11	-230	22	31
1014	-234	-297	52	31
287	-246	-202	52	31
196	-69	-19	-219	31
-14	-55	161	-150	31
137	7	209	-421	31
-46	47	162	-465	31
-164	3	229	-354	31
-134	-26	303	97	31
-70	-9	320	602	31
-152	24	156	507	31
-137	-20	-179	42	31
31	-9	-203	-227	31
-99	-44	-94	144	31
-66	-37	11	589	31
-500	9	64	554	31
-1473	22	50	281	31
-1438	64	-81	360	31
-102	11	-249	-382	31
-5	9	-143	-834	31
346	29	137	-285	31
1458	-5	243	-217	31
850	-9	92	-133	31
468	-29	-29	-146	31
217	-22	-187	-162	31
-22	-24	-19	-24	31
60	-46	517	335	31
-25	-27	652	385	31
90	-1	309	205	31
-39	27	-188	269	31
-17	92	-739	-265	31
-10	195	-703	-795	31
-106	190	44	-963	31
-102	58	375	-865	31
-67	-50	370	-494	31
-169	-52	353	730	31
-240	100	129	1753	31
-145	259	-218	1202	31
-191	151	-432	1228	31
-161	-219	-529	130	31
-172	-299	-506	-1005	31
-14	-142	21	81	31
61	-308	60	-149	31
-68	-438	-205	50	31
31	-283	27	76	31
52	-34	17	-615	31
59	71	141	-151	31
107	58	209	-425	31
176	50	129	-399	31
-36	6	169	-395	31
-783	27	73	-380	31
-1081	137	44	-24	31
-526	292	-26	105	31
-39	270	54	309	31
675	126	163	116	31
961	-121	46	158	31
365	-302	-16	62	31
279	-67	-28	22	31
77	43	-71	78	31
68	15	2	50	31
210	32	59	87	31
-14	-22	77	12	31
-229	24	151	79	31
-321	66	122	-6	31
138	202	134	-46	31
244	320	319	-305	31
205	267	713	-727	31
169	159	1053	-339	31
-64	-209	896	551	31
-42	-430	-58	1086	31
-89	-151	-1307	925	31
-121	9	-1859	285	31
-217	67	-1626	222	31
-129	125	-984	-6	31
-82	28	-407	-169	31
-244	-69	329	118	31
-270	-259	725	83	31
-992	-214	368	248	31
-1285	-16	117	-127	31
-74	-22	-69	-767	31
528	87	73	-1187	31
163	242	268	-1154	31
620	232	310	-642	31
1221	97	440	-398	31
259	-91	297	414	31
-932	-277	129	1522	31
-333	-221	-167	1096	31
1029	26	-348	-39	31
1047	34	-225	-340	31
572	42	162	-1	31
333	106	505	299	31
-36	87	438	-46	31
63	75	268	-92	31
109	9	-58	-88	31
71	27	-102	-117	31
41	46	6	47	31
46	12	139	1	31
44	-27	208	30	31
-62	57	94	-272	31
-56	219	70	-69	31
-357	170	-200	-51	31
-664	146	-319	-549	31
-710	184	-399	-53	31
-449	174	-355	485	31
128	81	32	944	31
408	-189	97	786	31
268	-508	34	104	31
190	-522	142	167	31
-15	-136	31	-255	31
-424	56	-224	-510	31
-413	35	-122	-364	31
230	41	272	-204	31
-5	31	789	-284	31
-967	68	1015	-284	31
-317	65	417	255	31
640	129	-570	227	31
623	257	-1195	121	31
505	287	-1362	-488	31
300	191	-951	-800	31
4	-39	-433	-284	31
-44	-351	-22	-27	31
132	-462	436	855	31
295	-204	443	989	31
76	96	220	401	31
-242	170	186	528	31
-52	126	125	-29	31
47	9	142	-313	31
-170	-214	309	-25	31
-648	-240	200	-382	31
-1418	-19	109	-585	31
-1001	66	119	-415	31
102	17	49	-84	31
217	53	147	140	31
639	58	165	221	31
1294	24	121	149	31
869	-4	152	-61	31
477	-43	97	-207	31
239	-15	198	-279	31
2	16	325	-265	31
4	43	254	-330	31
-125	70	236	-91	31
-42	64	54	557	31
-6	61	-222	681	31
38	50	-380	517	31
14	45	-585	371	31
-99	15	-540	106	31
-81	7	-260	-19	31
-126	44	15	-180	31
-72	7	108	-354	31
-92	-11	-177	-618	31
-197	9	-337	-613	31
-818	41	-60	-380	31
-1325	169	149	112	31
38	248	107	848	31
1245	161	102	775	31
632	-32	239	132	31
86	-317	337	-84	31
-167	-393	205	-270	31
-16	-150	56	-444	31
162	-28	49	-137	31
214	-7	190	437	31
282	0	328	911	31
-112	-4	240	381	31
43	36	127	172	31
29	16	-149	164	31
-135	29	-663	-375	31
-53	34	-769	-498	31
-182	27	-460	-258	31
-265	50	-116	26	31
-535	61	179	-533	31
-971	62	159	-526	31
-1570	19	-11	55	31
-908	39	295	244	31
913	217	716	420	31
1269	340	413	-56	31
688	206	-204	-77	31
344	-53	-761	139	31
489	-366	-854	-64	31
552	-369	-175	-188	31
-770	-50	195	-269	31
-878	-22	212	89	31
703	-83	190	130	31
1089	-152	131	-196	31
483	-153	249	-129	31
8	3	142	-68	31
246	40	30	24	31
518	119	56	-151	31
-87	326	49	-565	31
-713	591	68	-400	31
-769	526	113	182	31
-882	160	190	850	31
-1181	-327	223	816	31
-1480	-636	114	517	31
19	-340	-173	93	31
413	-112	-370	-248	31
-1575	-96	-405	-243	31
191	-189	-290	-471	31
1983	-251	-45	57	31
2023	-31	244	320	31
2240	40	319	235	31
871	41	189	224	31
457	79	425	166	31
110	84	757	374	31
-186	81	503	258	31
-46	62	-183	70	31
-285	52	-666	-129	31
-42	21	-696	-380	31
-109	42	-415	-587	31
-86	66	-125	-632	31
-67	67	34	-530	31
-79	51	-128	-290	31
-64	44	-213	-260	31
-118	73	39	510	31
-22	137	62	1083	31
-90	313	41	6	31
-183	347	-105	-191	31
-286	197	-375	-66	31
-213	-19	-368	251	31
-177	-373	-353	521	31
-204	-495	-367	17	31
-240	-219	-125	135	31
-248	87	170	-80	31
-148	144	368	-131	31
-129	60	601	-227	31
-77	-90	620	-294	31
-90	-232	518	64	31
-19	4	465	48	31
20	401	465	141	31
-36	404	482	-11	31
4	114	403	-183	31
0	-353	227	-189	31
-30	-696	-131	-240	31
-68	-300	-477	-447	31
-81	187	-452	-349	31
-56	211	-167	62	31
-28	99	-115	107	31
-100	-128	28	251	31
-114	-296	48	20	31
-52	-151	-341	-462	31
-47	140	-551	-437	31
3	521	-793	-62	31
-37	970	-566	713	31
-14	860	90	1217	31
47	318	331	713	31
