File Name: not saved
Channel 1: 'EMG 1', 17427 values, raw ADC, no filters.
Channel 2: 'EMG 2', 17427 values, raw ADC, no filters.
Channel 3: 'EMG 3', 17427 values, raw ADC, no filters.
Channel 4: 'EMG 4', 17427 values, raw ADC, no filters.
Digitals combined (event=16, d=8, c=4, b=2, a=1): 17427 values, .

5	19	9	13	31
68	-86	-4	32	31
114	-49	-81	8	31
61	128	105	-9	31
106	137	31	-71	31
54	26	-120	-145	31
14	-104	-212	-116	31
-31	-129	-167	-23	31
-21	-85	-224	11	31
34	-22	-189	4	31
-72	29	104	23	31
-99	12	282	25	31
-24	-2	442	57	31
30	-1	325	62	31
26	31	44	27	31
-15	78	-244	-9	31
-54	245	-521	-8	31
35	380	-555	37	31
92	204	-357	89	31
69	-43	-37	41	31
69	-252	132	-21	31
-1	-337	200	56	31
12	-123	324	76	31
29	-10	384	27	31
-16	67	235	-61	31
-180	298	62	-147	31
-327	263	-79	-193	31
-195	74	-363	-219	31
-2	-103	-534	-161	31
45	-297	-393	-66	31
61	-284	27	34	31
109	8	375	26	31
49	179	455	82	31
75	112	267	109	31
147	144	-106	26	31
70	151	-525	36	31
-29	-16	-847	81	31
79	-219	-368	127	31
7	-208	202	77	31
88	-87	220	34	31
141	-57	353	32	31
-109	-45	190	66	31
-19	-46	-31	87	31
-131	19	53	49	31
-22	27	222	1	31
-79	34	500	-24	31
-151	67	439	-38	31
84	21	458	-40	31
-16	19	477	32	31
111	9	114	94	31
104	0	-45	75	31
66	12	-346	49	31
80	21	-625	55	31
15	27	-603	-61	31
34	28	-291	-219	31
26	52	47	-189	31
21	63	31	-106	31
-59	67	75	-12	31
-58	46	57	117	31
-57	19	94	61	31
-62	-9	84	12	31
-72	-35	15	37	31
-69	-16	55	-6	31
-4	50	39	13	31
29	101	16	22	31
9	89	-63	42	31
-21	182	-62	66	31
62	160	-14	35	31
82	-164	101	-24	31
100	-230	102	-72	31
67	-62	146	-15	31
-22	-140	370	77	31
-5	29	347	82	31
-46	469	86	-1	31
-1	206	-189	-66	31
17	-271	-345	62	31
-23	-334	-593	75	31
-42	-318	-589	-119	31
-106	-67	-270	-119	31
-7	-2	-101	-72	31
29	-103	111	1	31
-58	2	321	39	31
-50	-4	284	19	31
41	24	56	36	31
61	34	12	-21	31
34	28	131	-30	31
84	52	204	4	31
-77	54	260	28	31
-139	125	227	19	31
114	117	217	26	31
-1	95	54	-16	31
-142	46	-203	-53	31
-62	-60	-267	-3	31
-41	-104	-182	-21	31
-11	14	-99	-25	31
-57	262	-134	-29	31
-40	267	63	-1	31
68	49	137	46	31
71	-104	-101	46	31
29	-287	-309	84	31
61	-342	-365	41	31
96	-122	-195	-7	31
124	12	103	4	31
92	-1	330	6	31
14	54	377	19	31
75	79	321	41	31
80	84	135	97	31
-5	99	-59	141	31
-101	47	-174	76	31
-151	83	-77	37	31
-29	222	101	116	31
-51	209	167	214	31
-70	145	179	169	31
34	36	129	-223	31
12	-364	-58	-462	31
-31	-509	-302	-304	31
-81	-204	-322	-185	31
-16	72	-307	-71	31
29	126	-302	41	31
94	44	-66	30	31
194	-3	182	87	31
69	-46	285	134	31
-30	132	434	114	31
-107	535	467	47	31
-1	500	171	7	31
41	-101	-76	50	31
-121	-453	-92	42	31
-58	-480	-127	-3	31
-67	-401	-134	-134	31
-85	-132	46	-172	31
-9	-76	147	-29	31
-14	-64	121	74	31
-32	-9	107	56	31
108	-1	9	50	31
224	195	-78	21	31
61	352	-142	-51	31
72	283	-150	31	31
68	82	-258	87	31
-50	-58	-317	65	31
30	-225	-180	73	31
14	-223	-81	30	31
-60	14	41	-7	31
-65	64	9	7	31
-72	78	35	13	31
-142	110	57	37	31
-133	92	-292	54	31
-2	77	-399	81	31
14	37	53	114	31
-12	39	275	79	31
-5	32	64	-12	31
54	18	51	-107	31
131	6	307	-87	31
117	-1	393	-50	31
63	7	339	-86	31
33	-2	234	-107	31
36	2	36	-102	31
47	7	-14	-11	31
26	23	-104	92	31
-43	33	-160	66	31
-40	6	-143	-73	31
-82	-42	-265	-66	31
-151	-74	-157	129	31
-42	-27	-4	224	31
2	143	100	112	31
51	166	259	-64	31
107	-59	282	-147	31
64	-124	340	-94	31
157	-1	244	-17	31
22	76	42	-56	31
-44	129	-135	-35	31
166	149	-261	5	31
139	7	-165	40	31
26	-134	-38	31	31
-108	-87	-30	-16	31
-129	-15	-117	37	31
-126	53	-228	33	31
-139	101	-312	37	31
-62	87	-256	47	31
-66	19	-124	47	31
-62	-104	61	43	31
-37	-215	309	12	31
-2	-209	546	-22	31
-3	-116	494	-74	31
27	-40	91	-44	31
122	1	-78	49	31
134	4	-196	66	31
64	111	-250	2	31
66	446	-15	19	31
64	936	77	25	31
-41	889	-15	6	31
-19	179	-212	26	31
5	-425	-195	22	31
-9	-867	-38	97	31
-79	-848	-87	72	31
-197	-518	-50	-38	31
-141	-518	3	14	31
92	-417	-226	53	31
159	-129	-217	5	31
-16	37	86	-114	31
-156	69	145	-181	31
-94	84	62	-142	31
177	122	53	-124	31
95	138	-11	36	31
17	138	44	-1	31
82	110	272	-187	31
28	101	312	-107	31
104	65	298	-55	31
-24	29	76	6	31
-172	42	-199	-1	31
-82	59	-382	-1	31
-35	62	-382	138	31
-71	61	-194	194	31
-94	73	-111	172	31
-107	73	87	153	31
-5	92	44	166	31
132	101	157	109	31
164	79	586	57	31
106	75	603	41	31
98	57	254	-6	31
121	36	-120	-18	31
107	8	-305	-19	31
194	-21	-277	-5	31
90	-17	69	46	31
-134	-12	324	81	31
-41	-10	274	12	31
-19	-3	176	-70	31
-102	-11	77	-89	31
-9	9	-114	-222	31
-39	59	-326	-339	31
-97	45	-414	-201	31
-63	8	-377	66	31
-54	24	-200	108	31
2	24	-41	29	31
14	22	59	74	31
139	19	94	79	31
132	-6	25	99	31
-21	-12	-137	127	31
146	-14	-174	92	31
91	-12	-106	38	31
-60	-11	-167	-18	31
-51	-17	-37	-154	31
-79	-1	94	-278	31
-76	14	184	-124	31
-75	17	311	18	31
-112	56	275	-40	31
-166	109	224	11	31
-48	96	-100	36	31
-117	99	-442	14	31
-172	117	-336	32	31
22	59	74	6	31
66	-3	285	55	31
87	-167	396	171	31
10	-441	585	288	31
92	-421	364	218	31
260	-164	163	104	31
17	-47	48	87	31
-158	47	-114	-8	31
-62	131	-51	-138	31
-37	195	-77	-134	31
-158	137	-77	-43	31
-160	-152	64	-67	31
-12	-198	117	-76	31
-59	15	-14	-26	31
-19	98	-116	-9	31
135	72	-273	15	31
87	80	-425	22	31
174	110	-347	28	31
208	65	-262	34	31
129	17	-146	-17	31
101	38	-92	-113	31
7	-17	-72	-167	31
77	-82	56	-77	31
85	-79	231	51	31
-9	-21	101	97	31
-19	145	-188	72	31
-103	282	-177	49	31
-136	323	38	130	31
-127	242	357	167	31
-100	-53	576	31	31
-17	-377	471	-54	31
-52	-463	136	-24	31
7	-360	-56	-32	31
59	-156	-142	-54	31
-38	34	-199	-87	31
59	22	-292	-93	31
118	19	-431	-64	31
1	46	-181	-71	31
32	27	114	13	31
12	56	114	102	31
-72	32	-23	44	31
24	44	-32	43	31
10	52	211	111	31
-149	44	207	109	31
-99	57	122	77	31
-69	44	19	-49	31
-94	46	-156	-129	31
-7	42	-25	-56	31
-55	62	196	-51	31
-21	185	177	-29	31
171	380	-34	30	31
198	313	-229	48	31
175	30	-276	91	31
127	-217	-215	57	31
9	-436	-79	-82	31
121	-282	129	-105	31
78	-61	117	2	31
-185	-66	182	81	31
-114	49	405	138	31
31	90	266	107	31
-54	112	-76	94	31
-108	101	-365	162	31
-1	11	-565	144	31
61	-51	-492	35	31
47	-132	-171	-56	31
51	-84	167	-244	31
7	-14	412	-348	31
-36	47	313	-105	31
42	57	137	-7	31
84	62	96	-54	31
92	158	16	-29	31
61	27	-9	-77	31
-55	-227	-42	-64	31
-29	-178	-104	-49	31
-40	42	-24	-56	31
-24	72	307	-35	31
2	37	482	77	31
-64	42	247	126	31
-42	32	184	110	31
-46	29	260	181	31
63	59	-9	154	31
75	66	-309	98	31
-42	-80	-408	-37	31
40	-17	-275	-77	31
16	188	72	9	31
-22	204	230	-66	31
82	242	-124	-113	31
52	214	-479	-126	31
-14	160	-278	-44	31
12	-98	144	154	31
4	-520	287	263	31
-99	-529	232	198	31
-134	-237	159	-10	31
-63	89	-184	-57	31
-9	297	-469	29	31
-4	243	-422	126	31
-177	30	-345	122	31
-195	-159	-58	-57	31
-17	-359	132	-126	31
71	-350	17	-99	31
38	-80	61	-35	31
29	30	235	11	31
126	234	402	72	31
39	589	317	82	31
129	478	161	29	31
111	57	71	9	31
10	-307	-144	-68	31
34	-638	-195	-201	31
-194	-487	-59	-211	31
-109	-41	210	-60	31
-40	-14	221	-32	31
-167	9	67	-5	31
-124	81	24	44	31
24	41	-141	41	31
106	125	-147	62	31
42	152	-72	58	31
128	149	-200	12	31
165	106	-206	-77	31
95	19	-22	-27	31
82	-17	85	63	31
106	7	131	80	31
135	74	176	86	31
-11	125	306	71	31
-136	126	285	101	31
114	41	79	110	31
64	-31	9	51	31
-235	-59	92	-26	31
-118	-66	247	-143	31
-125	-42	230	-182	31
-23	13	45	-22	31
93	53	-168	20	31
9	47	-347	14	31
-24	43	-589	147	31
-2	29	-619	123	31
121	15	-205	96	31
95	-5	-42	67	31
179	-14	42	19	31
151	-4	290	33	31
-71	-1	248	-34	31
-56	6	69	-146	31
6	22	-147	-173	31
-54	51	-40	-58	31
-54	100	261	-8	31
-93	272	170	22	31
-109	235	7	72	31
-27	-199	109	32	31
-51	-152	236	-98	31
-42	172	263	-137	31
-62	-64	285	87	31
-31	-284	122	131	31
-86	-216	-96	49	31
-40	-79	-305	20	31
152	11	-480	-22	31
48	4	-470	29	31
132	184	-208	-97	31
72	536	142	-215	31
-80	588	67	-141	31
111	194	-8	-26	31
49	-180	134	-11	31
-36	-583	138	-142	31
-96	-758	187	-225	31
-156	-411	157	-6	31
39	-181	-157	132	31
86	-56	-423	42	31
10	27	-402	219	31
39	36	-239	224	31
63	62	-1	14	31
76	51	337	55	31
38	170	528	194	31
91	343	279	157	31
135	315	6	128	31
-31	116	-138	69	31
-24	-61	-187	-58	31
-62	-295	-153	-65	31
-212	-348	-360	-99	31
-36	-80	-482	-46	31
12	34	-149	61	31
-142	59	251	89	31
-107	96	340	3	31
-109	54	342	-64	31
-66	61	199	31	31
62	68	79	56	31
24	88	-15	-81	31
-81	168	-172	-255	31
51	287	-47	-176	31
225	297	-14	-29	31
86	77	2	-6	31
40	-154	114	117	31
50	-338	37	161	31
-42	-392	-26	130	31
-25	-166	29	45	31
32	-1	-64	-11	31
7	7	-89	-24	31
-56	47	191	-84	31
-101	44	457	-70	31
-121	32	635	36	31
-18	24	653	87	31
124	8	428	49	31
110	6	219	97	31
-5	-4	68	22	31
59	20	-431	-16	31
76	36	-741	1	31
57	66	-417	-81	31
197	102	-284	-81	31
127	98	-573	-122	31
173	127	-714	-94	31
-37	175	-452	-66	31
-304	26	-190	-45	31
29	-205	93	46	31
24	-124	356	55	31
-52	167	409	-42	31
-46	410	429	-62	31
-31	479	249	47	31
71	282	36	69	31
12	-114	144	95	31
49	-562	299	121	31
66	-683	131	92	31
36	-344	187	79	31
-19	-155	296	76	31
75	-131	2	72	31
56	19	-125	85	31
-59	27	-213	101	31
31	32	-314	14	31
-26	67	-27	-88	31
-75	78	202	-45	31
-173	231	145	6	31
-157	377	96	-15	31
-9	333	-187	-19	31
-102	194	-575	-26	31
-120	-4	-688	-17	31
-62	-285	-455	-24	31
-81	-258	-36	-40	31
-13	14	358	-14	31
183	65	550	24	31
161	-150	450	29	31
-32	-246	357	-34	31
13	-116	-174	46	31
84	34	-612	252	31
33	112	-420	188	31
-67	-190	-176	-101	31
-160	-478	104	-240	31
-127	-199	243	-209	31
17	135	486	-78	31
75	200	422	169	31
-128	379	90	132	31
-28	491	-77	24	31
56	241	-246	16	31
4	-112	-109	-117	31
91	-450	-119	-182	31
-9	-526	-74	-172	31
-37	-197	137	-116	31
-82	36	169	-95	31
97	67	224	-27	31
176	117	317	32	31
18	2	348	52	31
81	-9	27	39	31
-40	112	-202	60	31
-94	132	-162	151	31
34	176	-102	114	31
15	165	-36	156	31
-147	140	116	194	31
-137	92	46	81	31
100	55	-455	38	31
11	49	-493	-16	31
44	24	-310	-138	31
174	26	-249	-303	31
-296	6	-7	-330	31
-122	7	333	-84	31
308	2	425	-12	31
111	-10	243	61	31
127	-64	146	157	31
97	-155	62	94	31
116	-109	138	103	31
149	5	220	70	31
-23	81	135	60	31
-249	109	-101	21	31
-309	102	-631	15	31
-82	75	-853	102	31
-26	96	-338	261	31
100	251	246	299	31
85	306	686	107	31
-28	260	864	-55	31
107	293	744	-262	31
157	24	388	-191	31
135	-325	-555	-64	31
97	-293	-872	-112	31
233	-320	-518	-11	31
104	-357	-373	-104	31
-483	-173	137	-132	31
-353	-126	641	-26	31
129	-56	698	-137	31
-1	183	288	-99	31
-5	182	-131	-3	31
-64	180	-326	5	31
36	-90	-763	42	31
68	-955	-764	72	31
-141	-902	-235	252	31
27	51	209	286	31
7	387	550	116	31
112	362	668	80	31
2	214	462	101	31
-101	18	210	138	31
49	259	-116	200	31
-7	430	-815	171	31
118	328	-1060	9	31
-3	202	-304	-51	31
-106	-57	71	36	31
34	-341	-72	24	31
-64	-365	-57	-270	31
-171	-124	-333	-670	31
-26	-32	-269	-483	31
229	-63	97	-126	31
79	-13	426	-296	31
-128	-4	883	-92	31
-138	14	685	242	31
-156	-6	337	289	31
289	-46	511	219	31
369	-54	486	119	31
139	-68	225	176	31
172	-54	-151	106	31
-129	-13	-641	187	31
-281	51	-826	226	31
-125	79	-585	137	31
106	101	-26	-159	31
64	174	241	-445	31
-61	224	259	-215	31
-16	191	202	-156	31
37	156	59	-158	31
116	169	156	108	31
-255	231	74	166	31
-350	281	-284	92	31
19	109	-346	-112	31
164	-115	93	-287	31
169	-324	360	-236	31
132	-448	177	22	31
124	-226	32	337	31
41	-112	-46	267	31
106	-75	167	44	31
-12	76	541	-96	31
-1	205	540	16	31
57	510	371	357	31
-237	629	87	393	31
-157	483	-525	148	31
-39	65	-931	221	31
41	-636	-641	265	31
-134	-781	-262	-79	31
-381	-416	-320	-211	31
-135	-235	-559	-116	31
100	-183	-479	-46	31
70	-82	-169	-97	31
-129	-26	-37	-302	31
-117	163	298	-395	31
-101	525	643	-140	31
47	501	385	21	31
306	132	315	0	31
167	-153	345	74	31
69	-397	241	65	31
102	-487	455	61	31
192	-174	668	-44	31
67	105	679	-79	31
-268	21	286	138	31
-187	-8	100	161	31
119	-7	193	97	31
91	-34	14	309	31
114	22	-473	311	31
61	39	-1319	65	31
-97	54	-1584	-131	31
-40	61	-778	-413	31
74	192	30	-295	31
181	490	274	51	31
119	596	94	-204	31
49	326	-134	-348	31
-66	-71	105	-172	31
-48	-533	438	-115	31
-82	-724	699	-75	31
-233	-314	463	-39	31
-184	-210	-137	109	31
-20	-338	-598	224	31
88	-41	-653	359	31
-26	201	117	310	31
152	400	625	149	31
319	433	806	145	31
-107	178	385	204	31
-511	53	-448	146	31
-131	-23	-755	-94	31
267	-39	-402	-313	31
-5	47	372	-240	31
159	18	688	-31	31
349	-72	825	-14	31
-21	-107	631	121	31
-77	-150	324	184	31
59	-135	268	126	31
16	-59	-245	84	31
-175	-17	-1093	19	31
-125	1	-1760	101	31
139	14	-1145	-1	31
139	103	373	-224	31
144	162	512	-213	31
87	213	352	-95	31
-51	381	610	-102	31
-109	362	-114	11	31
16	75	-515	20	31
177	-37	-445	-26	31
-36	255	-411	295	31
-274	301	-14	272	31
-19	-132	290	177	31
279	-411	752	126	31
82	-521	962	-442	31
-10	-531	708	-665	31
-44	-261	318	-489	31
-56	-24	-444	-56	31
-60	-24	-641	286	31
-124	-56	-319	178	31
132	-84	-373	309	31
55	-97	-236	81	31
-162	-54	177	-202	31
-149	20	611	37	31
-24	71	621	174	31
80	55	508	286	31
36	47	192	292	31
99	142	-741	194	31
57	431	-1072	109	31
106	687	-901	-129	31
-76	446	-387	-337	31
-244	17	122	-430	31
21	-260	540	-269	31
-91	-512	632	87	31
-225	-240	178	174	31
-137	430	5	228	31
-48	451	-39	-154	31
-4	-46	27	-455	31
-162	-354	221	129	31
-56	-477	139	85	31
163	-380	-531	-418	31
148	-141	-688	-350	31
229	-74	-109	134	31
155	1	688	394	31
-36	47	1128	190	31
71	16	943	38	31
71	154	691	56	31
6	197	535	174	31
42	69	429	333	31
-169	-27	-161	239	31
-151	-155	-683	66	31
199	-210	-1036	326	31
69	-29	-948	274	31
-222	134	-626	-107	31
4	136	-456	-176	31
54	132	47	-192	31
48	102	57	-197	31
138	76	110	-113	31
64	57	122	25	31
12	95	-147	136	31
21	312	-234	194	31
138	513	84	6	31
-1	446	572	-259	31
39	116	184	-144	31
-6	-172	-282	-44	31
-242	-310	-605	-84	31
-115	-313	-510	24	31
-162	-282	41	-56	31
-147	-330	137	-157	31
-52	-378	201	-37	31
-58	-370	177	-9	31
-127	-133	46	-9	31
-19	-81	20	54	31
193	-159	281	44	31
36	190	535	-16	31
39	510	412	-64	31
69	554	505	94	31
4	500	358	114	31
84	371	29	2	31
24	101	-102	4	31
2	-313	-275	-66	31
32	-610	-250	-91	31
-62	-520	-195	-127	31
30	0	-179	106	31
24	460	-315	287	31
-19	553	-244	78	31
54	413	34	49	31
-94	-105	219	71	31
-28	-641	368	57	31
176	-840	200	70	31
124	-822	-57	51	31
90	-485	-277	42	31
285	-195	-204	-99	31
122	-2	54	-201	31
-210	300	527	-169	31
-90	336	938	68	31
26	382	613	239	31
1	476	-185	44	31
-21	427	-995	-54	31
-11	496	-790	-27	31
25	357	-205	58	31
-26	-60	-327	121	31
-151	-471	-108	56	31
-159	-531	306	91	31
-29	-170	223	53	31
-27	59	31	-87	31
8	135	-225	-176	31
150	202	-317	-103	31
265	178	-48	-204	31
260	74	180	-280	31
-76	-132	214	-33	31
-137	-210	139	-76	31
50	-107	157	-44	31
-49	28	433	15	31
-49	167	475	19	31
-68	228	242	119	31
-124	87	-172	89	31
-91	-120	-356	96	31
-162	-104	-184	72	31
-137	-17	-518	63	31
-107	-24	-383	22	31
-32	-36	-68	65	31
116	14	-468	71	31
89	143	-405	-52	31
53	197	-67	-114	31
26	203	372	-85	31
132	47	674	24	31
173	-296	739	55	31
102	-307	582	-9	31
98	-39	4	-39	31
-112	64	-208	381	31
-99	59	-209	452	31
127	67	-61	-259	31
-137	73	-273	-435	31
-330	57	-427	-138	31
-110	14	-12	-4	31
-96	1	-164	28	31
2	-1	-336	-122	31
176	-14	-50	-212	31
61	-14	410	-16	31
-14	-15	583	184	31
9	-16	367	100	31
76	-6	158	206	31
89	14	-102	435	31
77	49	-397	307	31
107	182	-572	57	31
80	305	-314	-129	31
-79	222	5	-227	31
-230	139	267	-205	31
-6	-41	467	-129	31
22	-372	388	-208	31
-143	-395	-50	-102	31
-22	-320	-366	81	31
-56	-301	-324	204	31
1	-73	-268	190	31
109	21	91	-74	31
74	-6	808	-148	31
61	152	1436	-193	31
116	374	1227	137	31
209	485	541	451	31
90	254	-494	-5	31
-14	-23	-1544	-231	31
-66	-248	-1669	-61	31
-142	-362	-909	26	31
-288	-76	-89	126	31
-148	106	-71	77	31
200	277	-291	170	31
102	450	-629	118	31
-30	79	-550	-142	31
-29	-348	46	-194	31
-66	-526	705	-142	31
-79	-560	929	-93	31
-82	-263	706	-146	31
48	123	515	-109	31
245	300	49	-177	31
175	383	-64	-116	31
-56	396	62	167	31
-67	190	182	134	31
55	-344	143	4	31
186	-665	46	-6	31
96	-268	71	27	31
-284	112	166	139	31
-135	36	317	112	31
230	-83	315	37	31
23	44	246	97	31
-184	75	-142	57	31
-66	-101	-380	62	31
-29	-6	-350	58	31
19	147	-165	-13	31
196	320	94	1	31
126	375	173	-8	31
-2	252	167	32	31
-49	386	-18	47	31
97	387	55	28	31
159	121	-12	36	31
-55	-177	-450	34	31
-24	-438	-476	102	31
-7	-608	-342	167	31
-14	-488	-167	65	31
12	-127	341	-192	31
-127	26	654	-193	31
-165	68	347	-43	31
1	205	-254	-7	31
0	506	-270	-27	31
-24	613	-44	-139	31
41	334	-288	-13	31
-116	121	-495	144	31
-106	-49	-640	127	31
75	-247	-523	71	31
121	-396	149	-72	31
29	-597	704	-246	31
106	-601	667	-252	31
116	-298	170	-72	31
-96	-26	-142	-27	31
-113	59	177	78	31
-192	62	385	127	31
-179	78	506	36	31
-13	59	658	-65	31
96	51	360	-242	31
67	70	-151	-297	31
-127	77	-541	-132	31
-24	92	-249	342	31
79	77	-180	667	31
61	49	-436	384	31
152	38	-65	76	31
86	91	198	229	31
46	143	195	244	31
1	164	345	9	31
9	270	321	-240	31
194	295	-141	-280	31
42	172	-387	-37	31
-204	160	-588	15	31
-29	142	-640	86	31
-118	-14	-404	21	31
-278	-277	-595	-152	31
52	-574	-791	-88	31
90	-520	-552	-92	31
12	-180	169	3	31
145	31	509	72	31
99	38	561	41	31
84	51	759	62	31
44	69	572	-11	31
76	162	402	-144	31
111	411	379	-283	31
85	410	472	-341	31
106	116	356	-216	31
-75	-273	-61	-92	31
-141	-579	-230	33	31
-129	-369	-175	220	31
-187	56	71	184	31
-24	41	244	163	31
-17	-95	234	204	31
-124	-36	-25	157	31
36	27	-462	17	31
-54	90	-427	-106	31
-155	159	-86	-74	31
-65	310	178	-61	31
168	430	236	-19	31
362	267	-143	-43	31
106	-15	-584	-38	31
88	-195	-640	31	31
62	-132	77	49	31
-46	200	716	123	31
-44	195	734	79	31
-76	12	405	-106	31
27	67	-466	-109	31
-22	-53	-1041	82	31
-56	27	-1079	-31	31
-54	57	-486	149	31
-40	-388	68	374	31
-21	-525	207	-79	31
34	-387	398	-38	31
175	-178	392	20	31
94	76	279	-84	31
-39	96	14	-50	31
39	127	-64	-157	31
51	17	71	-29	31
-1	-163	350	157	31
41	-124	508	171	31
-10	-135	266	-78	31
-78	-84	72	-77	31
-68	46	-157	63	31
6	124	-113	17	31
-141	153	79	-30	31
-171	164	-14	-88	31
-88	179	-34	-78	31
-238	39	-32	-108	31
-41	-182	-52	-63	31
61	-139	-42	-15	31
31	82	-62	12	31
83	127	-159	51	31
40	107	-240	4	31
118	102	-157	18	31
86	61	17	28	31
124	82	236	21	31
66	210	428	10	31
-82	334	397	42	31
-78	312	135	97	31
-144	250	17	128	31
-79	43	-12	150	31
-66	-402	-52	126	31
-140	-534	18	-62	31
-49	-309	7	-301	31
31	-174	54	-218	31
31	150	107	-131	31
30	614	-99	-70	31
68	692	-302	194	31
83	277	-410	263	31
87	-487	-526	77	31
-2	-835	-551	-125	31
-53	-649	-453	-53	31
147	-393	-259	-15	31
132	-125	316	-49	31
-14	-29	1024	25	31
-54	54	1227	121	31
-78	20	845	274	31
13	-64	79	137	31
-14	9	-763	-117	31
-125	66	-1205	-144	31
-134	185	-836	-27	31
-61	219	-160	-8	31
-22	244	220	-104	31
65	271	506	-222	31
142	250	439	-84	31
112	247	-10	171	31
176	112	-132	159	31
212	-168	29	179	31
1	-429	88	83	31
-24	-246	87	-45	31
133	17	126	17	31
-84	27	195	-6	31
-35	77	440	-57	31
-17	98	466	42	31
-116	177	171	80	31
-12	190	83	30	31
-92	102	-142	54	31
-36	36	-502	72	31
-32	-91	-564	57	31
-59	-172	-306	-147	31
-24	-111	-115	-345	31
116	48	22	-122	31
220	83	89	78	31
144	97	-144	45	31
99	84	-166	99	31
38	-79	-52	42	31
5	-109	-109	-61	31
-33	68	-148	-161	31
-58	338	155	-153	31
-92	536	387	11	31
-77	439	118	35	31
-40	32	-8	51	31
-11	-432	116	77	31
81	-692	71	61	31
-5	-548	46	16	31
-146	-198	115	-44	31
-69	-49	-304	-2	31
9	7	-725	102	31
39	92	-688	192	31
14	157	-373	247	31
-6	148	127	14	31
50	-51	60	-91	31
80	-184	-76	87	31
31	81	136	-19	31
-9	493	352	1	31
7	536	688	-89	31
-87	288	633	-196	31
-93	-14	339	-9	31
-85	-495	207	-12	31
-29	-742	114	-50	31
51	-468	85	-39	31
-7	17	31	-9	31
-53	432	-16	7	31
-42	472	32	16	31
44	194	1	1	31
54	-137	77	13	31
158	-498	386	65	31
102	-644	146	-10	31
-64	-276	-200	-89	31
-12	19	-265	-28	31
-7	32	-499	106	31
-39	172	-528	158	31
-156	210	-352	97	31
-116	197	-50	37	31
-44	199	105	54	31
-49	124	9	71	31
-12	74	42	97	31
44	24	71	61	31
138	9	158	-24	31
86	27	254	-117	31
110	131	154	-349	31
74	184	39	-457	31
29	219	46	-154	31
79	285	38	114	31
46	164	-152	119	31
0	79	-9	121	31
1	47	224	115	31
106	-316	72	101	31
-44	-711	-119	58	31
-116	-433	-185	-19	31
-48	34	-32	-74	31
-122	28	57	-36	31
-34	6	-11	29	31
-39	83	88	-12	31
-28	232	480	-67	31
22	389	771	43	31
37	248	744	196	31
98	46	509	147	31
64	-150	-6	91	31
61	-332	-620	131	31
56	-254	-804	92	31
40	-123	-613	25	31
-28	-74	-716	116	31
-24	20	-735	64	31
-2	114	-536	-124	31
-154	242	-107	-155	31
-106	287	215	-136	31
-31	226	169	-14	31
-134	145	174	-61	31
-66	-134	84	-149	31
-43	-327	193	-10	31
-5	-304	75	65	31
114	-220	-103	187	31
114	-27	-17	169	31
115	114	-1	-65	31
25	310	189	-70	31
-14	405	317	-6	31
59	164	141	30	31
39	-129	-245	-50	31
13	-498	-269	-224	31
4	-513	23	-164	31
-72	-83	151	-83	31
-87	46	242	-32	31
-7	1	322	32	31
46	56	214	50	31
40	70	27	64	31
-126	130	88	69	31
-222	282	183	66	31
-13	358	69	54	31
16	241	3	25	31
-106	82	-81	51	31
74	-133	-180	90	31
189	-388	-99	3	31
125	-291	122	-154	31
182	66	350	-88	31
93	444	260	105	31
-57	772	-59	102	31
-20	804	-258	45	31
-67	397	-302	-55	31
-94	-340	-259	-44	31
-74	-975	33	-16	31
-89	-1014	161	-59	31
-46	-639	-174	19	31
-9	-347	-200	32	31
116	-237	-84	118	31
147	-131	-36	108	31
16	33	182	-37	31
45	92	413	-73	31
105	104	465	-113	31
-7	97	216	-42	31
30	-2	-31	153	31
98	-41	-417	254	31
-87	18	-760	182	31
-110	106	-619	122	31
-68	172	-471	78	31
-82	191	-29	-10	31
-35	192	752	-81	31
41	256	885	-69	31
75	413	648	-1	31
-47	437	297	-11	31
-24	240	-437	39	31
-39	64	-730	131	31
-58	-25	-525	71	31
50	-31	-604	-137	31
129	-70	-330	-182	31
119	-187	544	-188	31
-30	-66	759	-272	31
65	184	180	-137	31
123	407	-213	-68	31
54	593	-545	-12	31
4	310	-443	98	31
-37	-429	5	83	31
-8	-941	46	55	31
-18	-832	289	21	31
-36	-352	342	32	31
-163	-17	177	46	31
-92	-2	131	7	31
1	23	99	-82	31
-26	177	152	-91	31
45	287	48	-23	31
9	273	7	-27	31
56	178	-21	14	31
91	-42	27	104	31
47	-311	165	141	31
17	-323	12	96	31
-16	-214	-170	87	31
52	-26	-29	75	31
16	98	135	-52	31
-65	36	131	-146	31
-74	93	271	-161	31
-92	179	495	23	31
-30	282	229	167	31
22	261	-332	143	31
-7	139	-494	114	31
-70	37	-239	94	31
-227	-175	-282	99	31
-100	-279	-456	-64	31
215	-292	-9	-269	31
171	-172	221	-232	31
84	43	44	-172	31
51	107	273	-101	31
52	189	814	252	31
99	265	665	166	31
84	205	137	-114	31
21	195	-262	36	31
-110	169	-545	37	31
-197	76	-349	86	31
-145	92	-446	37	31
-42	22	-384	-48	31
5	-218	-237	-64	31
1	-395	-314	-160	31
87	-475	-67	-111	31
161	-526	152	7	31
104	-317	227	137	31
104	-29	189	82	31
67	11	286	128	31
88	96	174	182	31
110	158	-143	169	31
-99	291	-267	218	31
-187	550	-276	92	31
10	489	-228	-128	31
-13	179	-111	-255	31
-100	-61	139	-54	31
-17	-169	222	7	31
-51	-44	233	-26	31
-5	121	335	87	31
-124	24	280	46	31
-107	-51	137	-6	31
17	-135	126	-72	31
-49	-167	118	-33	31
85	-42	245	-44	31
109	-9	477	-102	31
64	-9	442	4	31
18	-24	-107	115	31
62	-24	-751	88	31
92	-18	-608	-18	31
-61	21	-448	-59	31
-126	62	-236	-267	31
-147	35	4	-275	31
-82	39	79	-1	31
-100	41	287	121	31
-77	47	40	219	31
-19	39	74	149	31
-11	16	187	0	31
91	-1	89	-84	31
79	8	8	-127	31
66	89	-76	48	31
57	134	-86	147	31
69	149	-114	104	31
132	99	291	80	31
142	-124	867	22	31
109	-272	932	-40	31
92	-158	491	-19	31
122	-2	-285	69	31
-26	27	-1093	79	31
-111	-6	-884	-33	31
-59	22	-404	-88	31
-72	104	-256	-58	31
-87	128	-129	-87	31
-116	-23	-212	-86	31
-10	-202	-222	-3	31
116	-280	-133	67	31
-2	-395	426	66	31
-89	-260	697	37	31
29	11	227	74	31
11	182	-346	186	31
97	430	-671	302	31
132	428	-654	179	31
-81	317	-360	-122	31
11	117	217	-129	31
23	-290	510	-34	31
-76	-340	367	-121	31
-64	-340	-4	-113	31
-61	-406	-130	-61	31
-64	-131	-142	-149	31
-198	39	-82	-340	31
-79	60	445	-270	31
-11	126	729	-174	31
-73	144	536	-132	31
116	234	113	87	31
64	292	-142	189	31
70	273	-162	211	31
59	158	-129	155	31
7	-75	98	139	31
88	-226	218	96	31
-6	-230	100	50	31
27	-114	-1	46	31
-43	0	-117	48	31
-96	50	-191	71	31
-49	63	-235	17	31
-62	82	-212	30	31
-13	135	-44	79	31
39	282	-9	116	31
112	369	47	27	31
68	220	148	-52	31
42	-1	131	-26	31
92	-324	269	-68	31
47	-566	546	-47	31
29	-394	558	-12	31
101	-92	144	27	31
124	-2	-498	127	31
56	4	-804	162	31
-2	3	-778	154	31
22	-32	-831	36	31
-67	-17	-545	-147	31
-127	-14	215	-94	31
-120	12	659	-146	31
-129	46	583	-164	31
-39	46	452	121	31
-37	92	165	51	31
-46	144	-41	7	31
-5	172	-82	-1	31
68	207	61	-37	31
141	296	317	-74	31
34	308	188	-210	31
-69	196	232	-54	31
-37	67	21	-26	31
-90	-174	-306	-66	31
-1	-449	-56	-39	31
102	-394	-185	14	31
-49	-67	-249	41	31
-32	82	-83	40	31
-55	145	-176	98	31
-65	219	-157	73	31
-21	195	-130	70	31
-51	81	-56	94	31
35	-232	-74	104	31
2	-297	23	24	31
50	-47	398	-46	31
70	64	473	-56	31
1	19	205	-61	31
61	-101	-186	-31	31
113	-200	-398	-38	31
117	-221	-249	-2	31
-30	97	-77	92	31
-29	421	121	84	31
144	277	473	51	31
38	61	506	58	31
-98	-190	370	26	31
-74	-401	202	-3	31
-51	-229	-114	-54	31
84	6	-328	-51	31
94	185	-347	29	31
-20	318	-174	87	31
-54	134	77	133	31
13	-67	190	151	31
92	-222	-63	139	31
56	-337	-289	71	31
82	-124	-219	-146	31
71	45	-49	-357	31
44	31	48	-194	31
25	55	76	37	31
6	57	146	-45	31
-24	62	91	-67	31
-106	56	61	-119	31
-102	40	114	-350	31
-126	66	170	-269	31
-81	56	124	26	31
-116	44	111	259	31
-220	36	182	369	31
-36	17	32	123	31
99	9	17	19	31
73	-17	-1	91	31
-7	-18	-259	-21	31
-30	-2	-295	51	31
47	2	-277	129	31
-14	12	-252	79	31
9	14	-110	58	31
41	4	-182	69	31
52	5	-34	84	31
21	20	112	59	31
-32	31	64	79	31
-7	44	114	64	31
-94	67	131	21	31
-100	76	106	-20	31
-76	103	-213	-129	31
43	172	-182	-135	31
71	184	37	-37	31
37	160	22	-92	31
99	53	-141	-104	31
59	-243	-363	-46	31
121	-324	-219	-114	31
135	-74	-4	-43	31
84	102	316	104	31
86	255	600	101	31
-2	465	601	121	31
9	441	201	131	31
49	157	-187	24	31
-32	-264	-322	-31	31
-55	-681	-423	-124	31
-179	-719	-115	-330	31
-124	-375	160	-252	31
5	-162	119	-21	31
-40	-56	152	-2	31
-12	92	87	24	31
-11	97	-86	47	31
1	21	134	47	31
44	-112	180	9	31
76	-99	-137	15	31
61	169	6	121	31
72	246	224	181	31
65	99	99	179	31
64	134	12	86	31
89	302	-2	32	31
-72	196	-86	33	31
-134	-127	-145	17	31
-51	-165	-92	12	31
-102	-160	53	19	31
-119	-330	265	21	31
-63	-284	293	-69	31
-12	-137	93	-80	31
88	-32	-192	-5	31
89	71	-441	-74	31
44	90	-521	-108	31
27	82	-442	-2	31
33	74	22	171	31
86	56	431	202	31
-25	47	517	72	31
-132	51	580	0	31
-109	58	472	-65	31
-72	66	54	-86	31
-78	94	-598	-62	31
-125	148	-834	-17	31
54	206	-570	45	31
84	220	-279	45	31
-68	181	56	32	31
-62	127	345	31	31
74	-70	78	-23	31
85	-291	-255	-77	31
-17	-174	170	-72	31
76	12	695	-34	31
51	14	613	41	31
76	-16	260	225	31
63	-22	14	307	31
18	2	-202	-45	31
17	69	-296	-342	31
-98	228	-277	-175	31
-32	275	-96	97	31
-67	64	82	131	31
-82	-96	142	-16	31
-31	-209	31	-46	31
-34	-159	-317	59	31
-44	100	-504	-1	31
-19	47	-155	-192	31
142	-78	347	-59	31
89	-103	279	150	31
-19	-140	170	151	31
27	41	-164	139	31
1	214	-508	1	31
-4	246	-224	-198	31
7	139	25	-250	31
70	-206	32	-199	31
82	-483	125	-158	31
-51	-300	574	-122	31
-31	24	765	-92	31
-39	63	638	5	31
-82	-67	320	52	31
-21	-236	-19	58	31
-21	-246	29	99	31
-57	-61	24	165	31
-31	13	-305	245	31
7	4	-792	92	31
114	52	-819	-69	31
212	66	-487	19	31
60	86	-155	-76	31
-56	102	164	-227	31
23	119	289	-77	31
51	206	410	115	31
-127	369	548	242	31
-67	464	455	223	31
31	295	303	332	31
-96	38	57	322	31
34	-252	-546	-24	31
13	-458	-733	-162	31
-62	-196	-525	-48	31
-5	311	-34	74	31
-22	425	319	22	31
51	185	60	-123	31
109	1	-51	-160	31
112	-400	-219	-81	31
96	-767	-296	-68	31
54	-476	-82	-54	31
54	-75	172	-27	31
166	0	273	-51	31
195	26	359	8	31
-96	35	393	66	31
-240	19	-61	91	31
-44	-4	-427	89	31
-70	-21	-494	65	31
-88	162	-428	-56	31
19	358	-205	-214	31
-76	277	-85	-191	31
-89	116	272	-88	31
31	-17	674	28	31
37	-80	858	169	31
0	68	867	213	31
137	92	513	168	31
41	-58	235	108	31
-31	-103	-135	12	31
127	-127	-375	-98	31
-9	-18	-470	-93	31
73	308	-591	-21	31
26	666	-343	-74	31
-39	814	251	-115	31
70	818	680	-18	31
-150	475	521	69	31
-122	-563	6	80	31
-51	-1176	-462	81	31
-104	-838	-477	47	31
-106	-480	-373	4	31
-160	-240	-87	-48	31
-7	-135	122	-131	31
141	-142	-6	-52	31
176	172	-202	109	31
182	205	-347	93	31
54	31	-111	-66	31
-9	205	140	-186	31
-12	272	242	-197	31
59	184	344	-67	31
63	-44	320	-22	31
-17	-520	242	-3	31
-42	-723	257	96	31
-71	-354	-184	102	31
-111	-122	-581	226	31
-69	19	-471	174	31
85	61	-399	34	31
0	-76	-27	-1	31
-79	103	297	-66	31
39	136	460	55	31
118	158	601	103	31
109	172	658	106	31
46	122	531	23	31
29	167	-82	-60	31
24	86	-798	-68	31
16	121	-1255	-133	31
-11	123	-1215	-31	31
-23	112	-541	310	31
-33	114	-67	196	31
-92	71	102	-189	31
-94	71	492	-128	31
-78	37	463	-222	31
-82	111	235	-103	31
-48	263	107	65	31
-4	347	39	-18	31
1	262	-145	38	31
0	117	-233	22	31
56	-127	189	25	31
132	-341	397	19	31
164	-312	513	42	31
28	-247	431	63	31
-111	-237	135	61	31
-28	-234	67	56	31
59	-160	56	63	31
15	-82	60	57	31
-203	2	46	24	31
-155	89	54	42	31
2	143	-36	-111	31
-132	169	-237	-248	31
-55	190	-349	-187	31
-17	376	-297	-121	31
-6	490	18	24	31
92	384	442	74	31
24	200	633	221	31
26	-440	555	364	31
169	-1020	111	69	31
92	-606	-493	1	31
-102	-31	-738	-143	31
131	176	-610	-336	31
124	155	-187	-219	31
-32	-76	159	-247	31
17	-57	286	-267	31
-99	72	219	-270	31
-22	85	69	61	31
8	48	65	440	31
57	-48	152	324	31
-1	-102	147	118	31
-120	-127	153	47	31
58	-118	117	32	31
62	-57	-110	71	31
62	17	-175	126	31
86	104	-352	153	31
66	182	-312	129	31
64	252	-5	30	31
102	441	-45	-16	31
195	588	-289	-15	31
42	491	-535	-14	31
-110	376	-455	-24	31
-142	37	-98	107	31
-159	-303	257	240	31
-121	-297	370	84	31
-99	-439	373	-54	31
-66	-396	666	-107	31
-57	-24	736	-108	31
-25	74	15	-43	31
72	-86	-358	-88	31
97	-149	-79	-117	31
-15	-101	-69	-94	31
-11	-173	-11	-11	31
61	-194	249	141	31
0	-101	239	130	31
15	54	-71	39	31
52	282	-319	61	31
44	408	-369	17	31
-81	335	-177	-270	31
-174	89	-36	-390	31
-43	-173	44	-103	31
-11	-420	47	-66	31
-114	-470	-26	-66	31
-115	-199	4	65	31
-54	-17	54	26	31
12	14	170	69	31
199	60	410	40	31
102	73	810	30	31
-65	68	467	15	31
13	87	-159	-1	31
136	111	-586	17	31
228	121	-973	37	31
134	134	-565	131	31
56	202	-513	137	31
-86	384	-596	58	31
-34	432	-267	-72	31
51	80	-74	-65	31
-11	-232	422	4	31
32	-244	683	127	31
-27	-262	578	139	31
-26	-126	357	-43	31
34	134	165	-37	31
13	59	43	-58	31
-21	-119	-60	-44	31
31	-202	59	11	31
19	-290	175	65	31
36	-226	157	49	31
61	-52	26	-23	31
63	140	-83	105	31
95	240	-119	62	31
-24	232	34	52	31
-44	157	122	69	31
-55	-49	6	-21	31
-87	-246	43	51	31
-123	-207	71	36	31
-113	-57	-31	-82	31
-34	219	5	-183	31
-24	548	44	-78	31
105	467	-57	-19	31
-26	96	-106	-116	31
-120	-283	-126	-53	31
118	-490	-264	-72	31
89	-442	-284	-122	31
-21	-385	-96	-29	31
69	-250	37	42	31
187	-1	202	44	31
136	41	341	84	31
-47	51	214	96	31
-150	79	-13	101	31
-69	13	-240	122	31
-20	31	-448	34	31
-154	122	-419	-91	31
-193	220	-333	-86	31
-151	159	-123	63	31
2	159	271	92	31
92	237	370	6	31
-57	225	310	-127	31
-91	133	338	-121	31
87	-134	192	-9	31
166	-207	36	-107	31
24	-115	-95	-96	31
99	-136	-274	-34	31
111	-151	-121	-79	31
-172	-73	187	62	31
-126	-50	262	184	31
32	-86	4	114	31
32	0	-176	117	31
-5	102	-103	221	31
-89	194	3	240	31
-31	399	167	41	31
-53	559	205	-31	31
-41	292	194	33	31
42	-128	244	52	31
-71	-335	183	147	31
32	-369	-16	78	31
111	-12	-177	-72	31
16	398	-511	-131	31
100	353	-817	-96	31
76	144	-548	-71	31
-31	-91	-140	-39	31
-87	-332	181	11	31
-134	-297	480	11	31
-49	-153	545	17	31
-8	-172	328	-92	31
-42	-307	106	-92	31
-11	-305	-4	-13	31
-71	-104	-126	-60	31
-15	-41	-67	-140	31
130	-77	91	-82	31
76	3	-34	46	31
12	77	-197	87	31
27	126	16	137	31
159	140	124	106	31
176	132	-32	81	31
33	127	-145	93	31
41	109	-234	67	31
31	100	-81	-137	31
-32	54	157	-394	31
-76	37	112	-269	31
-66	44	-6	-22	31
-89	42	64	89	31
-145	32	49	170	31
-84	20	-43	161	31
-56	60	148	49	31
42	104	309	-55	31
50	167	319	-74	31
52	176	270	-76	31
79	75	21	-162	31
-29	164	-195	-131	31
119	351	-225	44	31
132	329	-144	216	31
82	126	-105	310	31
122	-375	-138	82	31
23	-820	-147	-61	31
-23	-655	-78	40	31
-74	-281	-97	10	31
-61	-142	-256	17	31
-107	26	-294	-17	31
-119	122	-102	-63	31
-21	16	214	-87	31
69	-19	387	-124	31
57	-204	503	-134	31
-120	-322	358	-107	31
-24	-94	-147	152	31
137	74	-244	383	31
31	119	-224	291	31
-36	160	-141	111	31
102	260	161	81	31
119	368	323	54	31
35	385	503	39	31
17	218	388	59	31
-76	-56	122	29	31
-56	-282	-227	-17	31
-23	-409	-551	-39	31
-12	-180	-668	-34	31
-33	222	-488	-114	31
-66	353	-77	-149	31
-29	177	39	-134	31
3	-56	56	-59	31
79	-288	89	17	31
62	-381	205	-39	31
77	-217	288	-33	31
136	-187	288	-102	31
124	-153	211	-153	31
44	-18	92	-89	31
-101	38	152	-19	31
-58	129	229	51	31
26	181	165	121	31
34	247	-292	221	31
1	263	-695	157	31
-45	207	-795	142	31
-54	200	-589	139	31
-133	152	-75	-10	31
-26	94	252	32	31
26	92	363	40	31
18	152	304	-180	31
101	238	240	-172	31
47	224	219	-82	31
6	116	299	-134	31
-56	-180	257	-36	31
111	-539	84	-106	31
61	-478	222	-212	31
-48	-179	111	-61	31
57	-16	-175	-8	31
-15	-64	-195	80	31
46	-125	-317	215	31
-219	-76	-420	266	31
-258	-58	-384	191	31
-37	17	-96	112	31
-89	77	32	92	31
29	122	-177	-8	31
22	202	62	-118	31
-6	237	434	-215	31
55	217	553	-172	31
61	139	354	-52	31
25	192	203	9	31
-22	282	620	114	31
47	158	591	188	31
63	-38	60	316	31
-68	-223	-19	325	31
-98	-379	-441	69	31
-45	-282	-1131	-176	31
-50	-29	-810	-178	31
-35	223	-440	-63	31
-1	674	-507	-359	31
-11	953	69	-464	31
-17	785	618	-17	31
24	347	441	160	31
51	-465	104	52	31
84	-1043	149	-24	31
91	-1115	229	-44	31
174	-1101	94	104	31
94	-767	-94	199	31
-62	-378	-133	52	31
72	-154	342	2	31
61	70	416	26	31
-40	58	121	31	31
-91	84	47	47	31
-131	144	-368	13	31
-56	122	-525	8	31
-26	152	-305	1	31
-82	126	-240	-44	31
-127	124	-114	-87	31
-120	102	151	-65	31
-86	104	488	70	31
60	122	440	211	31
97	107	103	89	31
112	124	-1	-28	31
124	114	-20	111	31
86	121	-342	167	31
212	127	-658	94	31
96	115	-330	-62	31
-77	106	13	-141	31
-66	85	148	-117	31
-37	66	491	-94	31
-19	57	593	-65	31
3	71	352	-127	31
-30	57	-72	6	31
-57	22	-378	133	31
11	-12	-277	51	31
-16	-46	470	94	31
17	-67	784	74	31
-1	-75	433	-77	31
141	-77	330	-239	31
112	-77	11	-63	31
-112	-56	-324	217	31
63	-12	-852	146	31
-43	47	-1103	127	31
52	110	-583	-82	31
54	97	-109	-264	31
-98	60	-67	-126	31
109	34	-153	-43	31
-32	16	56	-20	31
-159	45	236	46	31
-165	89	657	256	31
-56	167	826	144	31
34	278	451	-155	31
-61	242	2	-101	31
-114	36	-608	25	31
14	-122	-743	72	31
167	-206	-503	-7	31
41	-99	-299	-129	31
-1	182	-240	-154	31
68	162	-274	-90	31
68	-311	77	108	31
79	-521	430	197	31
-29	-109	107	92	31
-96	87	-269	65	31
-109	-86	248	59	31
-126	-278	278	-12	31
-34	-410	-74	18	31
-34	-82	212	40	31
-41	205	177	54	31
122	106	160	85	31
344	42	212	-20	31
197	-104	264	-146	31
-327	-217	510	-201	31
-176	-61	494	-48	31
164	115	245	217	31
69	145	-7	142	31
121	312	-9	9	31
60	472	-93	92	31
23	279	-630	54	31
-24	100	-501	37	31
-66	-141	177	-39	31
8	-491	656	-149	31
44	-448	1020	-140	31
63	-96	363	0	31
-177	107	-336	128	31
-162	114	-964	-4	31
54	63	-1217	-9	31
43	-70	-598	-25	31
99	-36	-282	-76	31
27	117	108	-53	31
48	235	255	-104	31
79	205	633	-280	31
4	21	653	-335	31
71	-27	21	-131	31
44	-135	-304	194	31
49	-155	-359	595	31
-76	-3	161	452	31
-31	139	568	89	31
142	363	489	106	31
-67	654	107	141	31
-109	845	-367	67	31
54	486	-643	-16	31
30	-180	-270	-242	31
-157	-954	511	-356	31
-243	-1330	768	17	31
5	-692	294	76	31
82	-71	-215	-139	31
22	189	-964	86	31
85	369	-1659	269	31
1	362	-974	199	31
124	130	-117	-222	31
13	-257	496	-245	31
-118	-246	543	-57	31
-16	-130	349	-204	31
-107	-206	502	-99	31
95	-119	175	-100	31
121	12	-435	-19	31
67	91	-897	48	31
163	118	-61	134	31
41	140	739	136	31
57	119	867	-52	31
32	76	909	-48	31
-195	101	586	-71	31
-140	89	679	41	31
108	63	520	137	31
42	56	342	244	31
10	57	465	81	31
29	41	696	-149	31
-33	22	412	141	31
-42	24	-739	467	31
-172	21	-1566	528	31
-204	16	-1829	211	31
-54	6	-711	-129	31
81	31	-310	-81	31
-52	75	-1462	-167	31
-114	214	-847	-665	31
-54	287	737	-690	31
-69	204	1000	-229	31
42	80	405	415	31
96	-390	225	417	31
111	-643	197	2	31
57	-270	328	67	31
106	2	931	-258	31
141	152	855	-109	31
41	237	199	186	31
147	222	-593	57	31
41	194	-985	-57	31
-92	62	40	-271	31
-68	-29	151	-222	31
-132	-131	-583	-327	31
-112	-177	-591	-304	31
-159	-84	-731	-66	31
-131	44	310	186	31
49	183	718	435	31
31	162	694	144	31
-14	-232	1338	-235	31
79	-542	698	151	31
96	-235	230	573	31
56	192	-651	403	31
-1	354	-1157	-1	31
-23	183	-412	-78	31
-64	-91	-281	87	31
-100	-230	-182	-24	31
-20	-247	-332	-426	31
-2	23	292	-951	31
-31	147	973	-815	31
-40	243	523	-464	31
-31	441	498	419	31
-1	406	-349	1545	31
62	317	-1766	1598	31
139	126	-2437	706	31
87	-121	-1666	-695	31
86	-403	594	-993	31
36	-700	1637	-588	31
-79	-763	1915	162	31
22	-596	1614	969	31
81	-313	917	620	31
45	77	972	161	31
-39	320	-348	-845	31
-26	350	-571	-1556	31
56	329	-121	-1125	31
-62	159	-124	-423	31
-147	45	726	594	31
-32	54	-500	800	31
194	95	-1659	695	31
20	125	-1094	374	31
-171	83	-123	-210	31
-69	46	394	47	31
-169	107	368	535	31
134	164	531	1584	31
297	88	-7	1738	31
114	63	309	-82	31
19	63	394	-1527	31
-154	23	-352	-1572	31
4	-6	-37	-936	31
27	14	-371	-265	31
97	204	-330	1033	31
133	350	-1538	682	31
-96	313	-2325	-938	31
-108	188	142	-468	31
-178	-105	1962	127	31
-225	-486	2041	162	31
-137	-489	264	-131	31
46	-227	-751	4	31
267	-131	312	-14	31
400	-87	1439	-531	31
364	-27	315	-269	31
307	77	-917	-332	31
329	34	-991	925	31
225	-32	-954	1227	31
129	77	147	228	31
7	-77	548	390	31
-112	-210	837	119	31
-124	-11	636	186	31
-149	1	-252	-312	31
-157	-242	-853	-403	31
-224	-214	-1059	-856	31
-407	64	2	-1224	31
-460	107	1015	143	31
-399	47	1108	-84	31
-274	216	856	-388	31
39	340	499	316	31
146	278	600	725	31
116	357	-189	332	31
274	283	-1494	185	31
346	21	-2268	357	31
230	-117	-808	-139	31
103	-288	1912	-690	31
-83	-134	1119	-704	31
-202	92	-363	537	31
-143	-7	-1305	939	31
-277	-242	-803	367	31
-130	-567	151	961	31
216	-481	204	221	31
349	-303	758	-979	31
251	-250	1390	-1213	31
69	-2	1953	-1653	31
148	11	563	-565	31
-165	104	-2127	250	31
-285	316	-3655	186	31
-140	305	-1576	308	31
-51	347	247	362	31
104	326	866	246	31
27	267	836	391	31
56	160	-684	635	31
-10	-63	269	-323	31
-67	-220	1997	-382	31
-283	-176	2138	393	31
-468	27	175	1569	31
-158	40	-924	1945	31
115	-19	-404	686	31
39	-33	-348	-223	31
-186	-94	-736	-755	31
-52	-71	-486	-763	31
87	-16	295	-372	31
265	63	410	-124	31
419	94	631	-788	31
274	82	27	-497	31
220	164	695	216	31
-16	196	882	218	31
84	119	341	620	31
290	82	-510	-192	31
11	62	-2089	-267	31
-133	26	-2102	-131	31
-192	-9	-1649	-898	31
-243	-58	142	-1026	31
-250	-65	2281	-941	31
-152	-90	2479	2	31
54	-120	1093	681	31
-43	-87	-137	487	31
-209	-54	-335	237	31
-60	16	-354	377	31
94	29	-659	294	31
-81	-16	156	330	31
-362	22	827	685	31
-252	59	-24	445	31
4	52	-1075	51	31
49	12	-1054	58	31
-117	-3	-374	2	31
-70	-70	-151	-916	31
242	-102	1108	-949	31
234	-39	1730	-435	31
224	-37	844	108	31
114	-1	-19	702	31
15	16	-658	199	31
70	12	-925	-274	31
22	8	-513	29	31
159	-26	142	129	31
92	6	262	-49	31
4	54	583	119	31
42	64	380	372	31
-190	21	-1275	682	31
-153	-47	-1543	279	31
-94	-118	-85	-104	31
-294	-152	155	-502	31
-103	-106	132	-823	31
32	-23	505	-402	31
61	22	200	-47	31
201	56	-91	234	31
199	35	-245	-69	31
152	-4	-160	-124	31
2	25	34	-169	31
-82	31	193	-23	31
-94	44	245	548	31
41	41	85	600	31
233	11	47	345	31
138	-4	-111	139	31
25	4	194	192	31
115	11	676	-107	31
146	-12	412	-285	31
106	9	153	-320	31
108	8	114	-298	31
29	-24	-199	-112	31
-103	-20	21	-161	31
-331	-24	1564	2	31
-361	6	1849	169	31
-129	46	-957	-334	31
-143	57	-3151	-227	31
-172	53	-1538	171	31
5	12	496	-167	31
12	23	332	306	31
9	96	109	300	31
135	116	-145	-691	31
169	161	-382	-599	31
242	12	-26	680	31
266	-378	-138	952	31
217	-330	-653	79	31
153	46	-378	289	31
-32	182	-18	549	31
-119	227	312	47	31
-45	126	436	-645	31
-64	-97	241	-702	31
-95	-100	618	-129	31
-112	-74	641	379	31
-154	-53	-167	533	31
-125	19	-472	46	31
-71	-12	1157	-120	31
-41	2	1733	-144	31
-78	19	106	-47	31
-12	7	-1119	380	31
111	31	-1798	151	31
155	38	-1324	-604	31
172	32	-531	-611	31
79	-37	572	380	31
-36	-106	1563	642	31
67	-104	804	-181	31
147	-37	-285	-39	31
-7	46	-824	344	31
-169	68	-888	192	31
-440	69	-274	-36	31
-325	101	161	-237	31
21	160	120	-84	31
-135	125	442	-382	31
-8	13	561	-649	31
392	22	1048	-1021	31
443	176	1002	-944	31
321	298	244	204	31
210	176	47	1284	31
320	-62	203	1489	31
379	-289	576	589	31
177	-392	992	15	31
104	-176	660	219	31
63	-37	-1052	530	31
-122	-22	-2368	86	31
-219	27	-2870	-667	31
-228	-20	-1423	-480	31
-221	6	-153	6	31
-164	7	24	72	31
-180	-1	721	-380	31
-182	19	518	-380	31
9	-6	638	-222	31
158	5	388	-271	31
114	-3	304	-70	31
-52	22	423	-93	31
-73	34	377	-126	31
71	1	658	-134	31
17	-5	301	232	31
-111	13	-586	380	31
-205	44	-891	203	31
-187	50	490	306	31
15	24	656	142	31
7	-1	-58	-136	31
-89	-12	-251	-136	31
17	-22	-338	164	31
-7	-19	742	127	31
107	-10	1654	-3	31
64	-13	483	-39	31
-333	0	-1446	-57	31
21	-2	-1345	44	31
254	47	79	67	31
102	190	407	-34	31
146	237	-255	-219	31
45	140	-76	67	31
79	16	-170	212	31
34	-199	-135	120	31
16	-366	218	17	31
6	-224	16	-245	31
-40	-22	432	-246	31
-19	21	882	65	31
-20	260	661	230	31
-74	644	-284	14	31
-166	639	-741	-142	31
28	355	-669	-251	31
15	-69	-360	-87	31
-20	-717	204	141	31
112	-965	382	132	31
79	-555	77	63	31
60	-130	-235	-42	31
16	67	-194	-27	31
41	383	-490	-79	31
-83	480	-362	-130	31
-212	109	533	-119	31
-16	-46	698	17	31
207	-263	380	170	31
8	-562	859	122	31
-125	-318	2060	-167	31
12	-79	1173	-415	31
-140	11	-2391	29	31
-71	103	-3351	677	31
30	109	-1261	704	31
-61	149	42	344	31
41	74	-152	350	31
287	48	-274	152	31
237	86	51	-348	31
-272	69	225	-307	31
-108	97	533	-109	31
130	64	358	-129	31
-135	45	290	-159	31
22	69	388	-122	31
-47	87	403	-164	31
-186	97	683	-254	31
-50	180	701	-261	31
-18	348	81	-122	31
-237	312	-856	-14	31
-292	56	-907	47	31
242	-198	-142	144	31
191	-367	319	131	31
-27	-269	294	128	31
147	-61	109	187	31
97	-61	-260	58	31
164	-11	-389	-91	31
132	37	-215	-67	31
46	11	-127	-36	31
11	36	385	22	31
-54	17	632	90	31
-7	22	246	53	31
-35	26	337	18	31
-89	27	372	-52	31
-47	53	423	-74	31
-33	98	727	-35	31
-46	121	827	-26	31
67	101	683	31	31
23	-13	-507	78	31
-31	-224	-2491	61	31
94	-173	-2406	36	31
77	-11	-533	91	31
62	3	598	132	31
83	-6	1435	227	31
134	-26	664	221	31
186	27	-522	-119	31
-31	87	-826	-313	31
-225	323	-205	-477	31
-156	850	1084	-388	31
-65	1151	906	66	31
-12	1023	841	269	31
1	257	383	381	31
-72	-998	-86	78	31
-200	-1743	-59	-227	31
-99	-1567	-693	-301	31
-32	-879	-1112	-339	31
-184	-380	-916	32	31
137	-150	167	97	31
175	-34	324	-36	31
-43	-21	132	142	31
78	82	649	294	31
-42	112	249	409	31
114	149	-93	226	31
91	203	-541	116	31
-91	199	-951	24	31
33	268	-410	-367	31
-126	342	473	-189	31
-260	411	615	50	31
-302	535	141	-86	31
-309	658	278	-197	31
-184	489	536	-250	31
101	134	290	-181	31
317	-109	-626	37	31
259	-134	-992	458	31
174	430	-436	597	31
250	903	307	228	31
367	644	332	-58	31
235	208	188	-139	31
166	-634	300	-183	31
61	-1545	73	-89	31
-72	-1568	216	118	31
19	-947	348	197	31
-74	-363	416	-19	31
1	-80	124	-75	31
201	-49	-202	-19	31
-47	-101	-81	-86	31
-205	-18	99	-124	31
-140	86	138	-203	31
-154	179	186	-137	31
91	285	452	-12	31
7	340	-498	147	31
-127	373	-1340	237	31
336	351	-43	165	31
168	374	664	297	31
-171	422	-214	334	31
93	403	-468	174	31
72	300	-288	55	31
-188	138	-22	-124	31
-136	78	-211	-257	31
142	194	-616	-214	31
199	697	-20	-95	31
-130	1196	739	-79	31
-401	1187	726	-45	31
-223	776	234	-162	31
-36	-685	172	-182	31
-44	-2106	205	-102	31
14	-1792	57	-104	31
91	-1101	74	4	31
94	-780	137	-139	31
146	-475	203	-201	31
148	-192	129	-173	31
-39	39	388	-69	31
-74	-36	606	4	31
122	-93	345	11	31
102	-74	16	247	31
-22	76	-548	321	31
19	252	-541	195	31
-115	229	-887	92	31
-213	254	-1144	255	31
-105	250	470	230	31
-87	270	1105	-107	31
-136	250	-59	-242	31
39	244	-976	-219	31
134	202	-654	-81	31
74	-42	-109	129	31
122	-88	-62	279	31
101	-46	-4	168	31
282	-104	41	172	31
-122	222	51	47	31
-320	473	-265	-217	31
174	162	-385	-206	31
-47	43	-162	-195	31
-129	-76	12	-130	31
-101	-442	333	-234	31
67	-548	510	-220	31
319	-89	500	-118	31
81	486	1115	13	31
-407	402	1319	228	31
-434	230	81	315	31
179	220	-1222	283	31
126	64	-735	156	31
-181	-106	625	319	31
-62	-107	689	216	31
337	-227	560	1	31
596	-584	136	65	31
112	-544	-725	-76	31
-377	-362	-1183	-156	31
-264	-7	-899	-59	31
-63	413	-199	280	31
-1	493	49	392	31
112	691	46	-108	31
44	578	-789	-222	31
-203	-120	-1095	-332	31
-191	-312	-283	-557	31
-180	-92	582	-216	31
-89	-342	382	91	31
211	-499	24	294	31
140	149	450	209	31
191	1076	503	72	31
138	1277	604	88	31
-68	1027	580	-128	31
66	422	559	-228	31
86	-316	556	-87	31
57	-1053	415	-84	31
-131	-2203	769	-261	31
-217	-1928	678	-241	31
172	-762	-292	-69	31
69	-278	-795	-47	31
-247	175	-1137	-29	31
-219	455	-1564	236	31
-227	600	-1117	416	31
-52	527	9	579	31
83	267	1272	251	31
247	12	1147	52	31
304	-244	482	272	31
37	-68	325	49	31
75	608	-410	147	31
132	1204	-786	56	31
-80	1632	-618	-122	31
31	2165	-265	-142	31
61	2197	170	-232	31
94	1534	418	-91	31
134	111	344	56	31
-173	-1904	140	-34	31
-150	-3299	104	-62	31
189	-3050	-109	-39	31
212	-1676	-510	-309	31
-200	-772	-863	-475	31
-75	-190	-602	-615	31
174	70	38	-132	31
27	-137	930	101	31
-111	-237	1321	-130	31
4	-557	737	1	31
223	-390	797	147	31
-2	102	1030	400	31
-35	262	182	127	31
63	531	-1104	86	31
51	753	-1471	270	31
14	735	-678	268	31
-28	596	-125	515	31
-149	365	-572	301	31
-174	-254	-462	-173	31
-162	-483	61	-232	31
-57	-30	345	-192	31
275	307	626	-88	31
61	375	687	121	31
-212	170	440	-4	31
-157	46	-563	-192	31
92	-57	-941	-193	31
102	-21	-380	-45	31
-3	415	37	269	31
124	784	275	287	31
78	777	319	16	31
-125	533	-439	131	31
-177	127	-583	244	31
-7	-401	425	177	31
-105	-378	673	179	31
-343	99	324	18	31
-137	682	-170	-224	31
81	1098	382	-487	31
-167	589	824	-379	31
24	-222	478	-260	31
147	-624	58	-480	31
-119	-1237	-743	-572	31
21	-1402	-520	-365	31
186	-667	-234	6	31
396	-279	-678	263	31
467	-43	-928	514	31
135	26	-242	187	31
-263	133	975	280	31
-330	943	990	623	31
-222	1224	284	120	31
-15	967	-175	-35	31
137	696	-486	-66	31
-12	19	-417	34	31
60	-547	-101	147	31
122	-795	126	26	31
-46	-1255	155	-28	31
-168	-1525	-41	-53	31
-44	-981	-18	-81	31
117	-74	298	-117	31
227	509	856	65	31
206	865	1018	157	31
-1	731	628	101	31
89	247	614	49	31
57	-265	-689	194	31
-49	-882	-2693	188	31
46	-576	-1498	-449	31
62	9	1367	-672	31
81	121	1607	-200	31
-131	214	224	-4	31
-261	140	-617	160	31
31	193	-586	467	31
-162	71	41	-15	31
-442	-190	215	-417	31
3	-156	132	-143	31
280	-150	-250	-13	31
300	-87	-268	288	31
103	214	-360	288	31
-94	492	-411	34	31
-31	471	-316	42	31
-217	361	-659	32	31
53	200	-41	-51	31
205	-112	513	-235	31
-88	9	849	-204	31
34	299	614	-33	31
6	119	279	307	31
-113	31	205	401	31
-56	44	-221	26	31
59	-39	385	-184	31
188	69	220	-299	31
255	27	-311	-455	31
-120	-93	-624	-525	31
-357	-107	-60	-106	31
2	-163	1374	657	31
-7	-116	188	790	31
-6	-47	-1077	233	31
286	69	-793	-64	31
132	225	-139	1	31
-109	280	320	186	31
-21	352	488	185	31
19	312	679	28	31
-78	49	398	19	31
-62	-159	271	-62	31
-23	-218	-71	-200	31
-16	-109	-440	-414	31
75	86	-525	-41	31
145	-71	-365	154	31
84	-429	-245	-162	31
-66	-466	-307	127	31
-129	-15	-47	92	31
-6	370	164	-130	31
71	251	-37	-238	31
-99	67	-431	-350	31
-179	-313	-367	-75	31
74	-471	-212	285	31
125	-66	489	184	31
-114	74	636	-52	31
-157	-76	-141	255	31
-140	-347	7	81	31
-33	-549	96	-289	31
132	-350	-168	-86	31
153	17	-188	151	31
-124	173	179	467	31
-257	228	223	534	31
12	267	350	7	31
-182	214	596	-232	31
21	236	846	-169	31
250	194	802	-174	31
57	21	-132	-41	31
127	-156	-917	-34	31
-26	-263	-1408	-85	31
32	-365	-658	-97	31
26	-313	-173	207	31
82	302	-217	147	31
-139	1035	-570	-435	31
-230	1273	-885	-382	31
99	943	501	-77	31
-89	-7	1157	33	31
-137	-898	1204	117	31
-9	-839	534	172	31
136	-321	-378	129	31
40	30	-285	66	31
62	175	-192	19	31
23	-40	267	-163	31
-159	-157	110	-224	31
44	219	78	64	31
40	453	59	467	31
-23	315	147	295	31
52	-18	531	-39	31
117	-525	12	25	31
1	-927	-422	29	31
51	-742	-460	11	31
140	-132	237	-274	31
109	189	970	-553	31
205	747	611	-410	31
16	1423	-633	-184	31
-27	1155	-1068	14	31
-89	478	-295	359	31
-106	-478	-65	728	31
-123	-1258	-410	525	31
-547	-982	-250	162	31
-146	-589	14	-79	31
264	-494	42	-265	31
36	-314	84	-119	31
199	-281	69	-57	31
344	-18	260	-190	31
162	383	256	-299	31
-101	278	-562	-258	31
-59	120	-1077	81	31
-102	-11	81	299	31
-256	-99	616	151	31
-61	-39	376	15	31
80	-153	525	172	31
280	-435	192	349	31
93	-411	545	57	31
-177	41	608	-14	31
72	327	91	14	31
77	451	-343	-340	31
-52	460	-457	49	31
-53	259	-99	564	31
-54	280	154	197	31
53	566	402	-248	31
302	745	186	-292	31
146	639	57	-338	31
-181	347	282	-452	31
-166	707	423	-445	31
-127	2051	300	-280	31
60	2613	57	50	31
28	1188	-259	601	31
-62	-1492	-348	652	31
27	-3443	-413	89	31
-116	-3241	-889	34	31
-22	-2106	-815	28	31
280	-859	-302	91	31
274	-201	99	294	31
-68	-385	180	60	31
9	-197	-185	-98	31
243	-150	-334	-105	31
-44	-30	-358	-98	31
49	223	84	-38	31
11	342	1026	-244	31
-74	875	721	-690	31
97	1148	182	-446	31
-277	902	16	197	31
-164	297	-257	796	31
-14	-530	-32	564	31
-244	-983	189	-548	31
157	-603	206	-437	31
175	-101	-207	-199	31
-141	44	-834	-18	31
86	129	-957	530	31
134	130	-297	322	31
-8	190	340	186	31
109	261	255	-35	31
89	378	17	-220	31
-345	458	-462	-224	31
-236	460	-359	-96	31
-63	458	1205	199	31
-210	164	2331	167	31
146	-111	1879	-68	31
112	-252	-12	-305	31
61	-398	-2061	-172	31
1	-230	-2407	34	31
-56	-73	-1513	121	31
57	-168	-451	87	31
-58	-143	548	240	31
193	31	1133	344	31
222	244	702	-162	31
137	401	283	-522	31
-2	493	49	-597	31
-57	471	257	-121	31
-1	270	587	803	31
-35	251	185	778	31
192	242	385	107	31
39	167	711	94	31
-71	175	827	179	31
-90	-99	491	124	31
-585	-415	-203	176	31
-494	-542	-693	2	31
269	-483	-889	-78	31
157	-165	-763	-244	31
-260	189	-698	-216	31
-37	339	-231	-100	31
254	432	-106	-237	31
173	1134	252	-124	31
117	2188	877	-87	31
343	1989	158	-130	31
137	418	-622	-99	31
-35	-1320	-908	-104	31
-32	-2366	-621	-124	31
28	-2130	295	-10	31
-88	-1477	366	137	31
-402	-789	120	37	31
-125	-204	141	132	31
244	-276	67	106	31
131	-465	189	-12	31
-203	-511	96	76	31
21	-366	237	-112	31
130	-258	602	-147	31
-39	-273	347	-82	31
-117	-86	-398	34	31
-140	140	-1327	187	31
214	440	-1364	177	31
37	887	-408	160	31
-274	938	-92	-17	31
-79	430	677	-153	31
118	64	1666	-62	31
-168	125	1296	100	31
-560	167	442	-112	31
-159	33	-220	-282	31
517	47	-17	171	31
306	79	438	552	31
-126	102	472	254	31
36	185	203	-176	31
67	221	-67	-164	31
222	235	-402	-20	31
460	85	-383	311	31
52	-177	-157	147	31
-161	-311	-211	-126	31
247	-99	-262	-71	31
146	54	-412	-194	31
-106	14	327	-56	31
-115	84	415	-32	31
-217	90	-506	-20	31
-104	67	-739	-66	31
-110	25	-480	149	31
-71	-11	-287	344	31
41	-1	-854	-55	31
19	50	-510	-289	31
-21	170	-45	-510	31
-1	118	303	-437	31
39	-74	754	-385	31
-30	-301	227	-220	31
-53	-470	377	399	31
-32	-309	664	385	31
164	35	225	179	31
157	225	-531	296	31
-54	328	-866	91	31
152	412	-539	53	31
27	479	47	245	31
-506	440	417	154	31
-114	179	542	156	31
268	14	776	-153	31
-172	106	718	-257	31
-122	393	496	-106	31
84	464	282	-63	31
-11	-22	102	-58	31
83	-665	-200	-169	31
125	-802	-276	-39	31
96	-378	-250	64	31
181	-46	-490	399	31
191	97	-405	364	31
149	-59	-35	-169	31
193	-230	122	-99	31
10	-263	26	2	31
-228	-504	87	-142	31
-79	-434	126	-38	31
62	-46	95	9	31
-78	478	87	6	31
-163	656	-34	-49	31
-123	350	-67	-34	31
-41	-218	-159	137	31
47	-895	-237	34	31
37	-641	-129	33	31
-4	101	-15	37	31
68	540	378	-67	31
192	531	1010	-52	31
17	298	766	-129	31
-66	97	-184	-209	31
76	-145	-812	-199	31
-189	-31	-1360	160	31
-152	-363	-1254	326	31
115	-752	-513	-67	31
2	-313	41	144	31
-122	569	314	350	31
-124	1501	330	51	31
-47	1475	452	122	31
-30	588	448	41	31
72	-869	297	14	31
-35	-1429	173	-73	31
-86	-807	75	-193	31
85	-520	122	-51	31
32	19	240	-57	31
106	273	239	-15	31
186	287	119	-23	31
66	167	74	4	31
-78	-259	36	17	31
-18	-404	33	-39	31
78	-405	82	-82	31
61	48	-30	-132	31
-67	342	-332	-172	31
-382	485	106	-247	31
-294	442	1567	-272	31
-9	-31	1949	-199	31
-6	-347	781	97	31
142	-455	-965	397	31
132	-129	-1932	463	31
37	152	-1109	429	31
43	223	-813	326	31
-44	259	-867	167	31
56	195	-613	119	31
246	323	-585	90	31
249	527	-235	-149	31
63	860	113	-309	31
-108	788	314	-204	31
-222	345	272	-127	31
-55	-189	575	-179	31
62	-902	615	-275	31
-38	-768	-55	-433	31
34	-392	-317	-433	31
-69	-373	-418	-123	31
-360	-338	-703	562	31
-179	-113	-164	824	31
121	506	550	199	31
124	495	653	-162	31
119	-44	542	-36	31
136	-328	581	132	31
116	-529	992	76	31
-37	-568	937	74	31
112	-262	225	104	31
102	3	-499	26	31
0	26	-892	-11	31
68	71	-719	-176	31
-84	107	-350	-126	31
-26	313	-213	-20	31
-98	581	-84	-43	31
-86	546	-105	-66	31
18	225	598	-79	31
-14	-171	1478	-107	31
-13	-446	1212	-154	31
-92	-370	646	-22	31
59	171	-504	206	31
102	418	-1584	204	31
25	77	-1593	116	31
-6	-446	-994	124	31
-64	-734	-416	-7	31
7	-333	15	-106	31
-111	251	-1	-208	31
107	537	-106	-172	31
255	681	264	182	31
-174	470	618	196	31
-110	-59	755	88	31
44	-330	215	148	31
-162	-392	-107	-139	31
-160	-95	1	-355	31
4	355	144	-332	31
56	312	535	-270	31
99	298	802	-15	31
145	204	237	20	31
1	-225	-585	-62	31
13	-566	-874	-156	31
84	-658	-654	-284	31
74	-508	-225	-51	31
48	-200	-277	505	31
-39	37	-132	742	31
156	20	49	365	31
39	49	295	47	31
-200	132	527	11	31
-19	149	333	56	31
31	177	267	49	31
-22	333	185	16	31
-134	631	82	32	31
-177	712	-53	-59	31
-3	398	96	-100	31
117	-328	377	-37	31
66	-880	125	6	31
-48	-624	-317	31	31
-26	-244	-448	94	31
22	-42	-54	107	31
64	156	526	56	31
-1	152	470	45	31
-117	233	-95	8	31
-24	240	-550	78	31
-37	169	-533	97	31
16	34	-475	-102	31
-34	-220	-452	-232	31
-184	-106	-28	-235	31
-29	24	169	-209	31
-36	87	320	-247	31
61	289	392	-89	31
141	378	4	253	31
100	301	-264	159	31
79	30	-141	-101	31
-157	-348	297	-124	31
74	-516	473	-9	31
186	-227	284	50	31
82	-34	175	-21	31
166	-51	95	40	31
5	57	4	67	31
-16	88	-148	77	31
-171	143	-190	42	31
-87	84	-18	-27	31
-19	-69	107	-24	31
-257	-150	160	-33	31
-97	-192	81	0	31
-83	77	-42	-6	31
-24	496	-80	-20	31
92	1017	-127	-38	31
76	1164	-131	-62	31
83	216	-94	-101	31
122	-768	-57	-170	31
197	-737	-148	-129	31
8	-106	-417	197	31
-89	135	-470	505	31
-112	-222	-21	358	31
-126	-820	295	122	31
-75	-1169	254	-91	31
7	-428	495	-140	31
80	253	601	100	31
-47	107	207	169	31
-47	-48	-89	27	31
-13	-154	-674	-64	31
-71	257	-746	-1	31
-9	826	-84	-63	31
172	834	-90	-55	31
-52	558	17	54	31
-192	-274	234	15	31
122	-1008	249	-55	31
59	-862	383	-171	31
29	-635	179	-202	31
85	-429	-141	-189	31
42	-135	-268	-82	31
16	26	-104	69	31
-63	139	234	56	31
-85	145	264	-18	31
-113	170	71	-7	31
-69	179	11	77	31
-11	84	-173	27	31
-77	-19	-298	-12	31
-111	-104	47	72	31
36	-42	292	104	31
134	226	165	124	31
108	501	-36	88	31
146	744	-114	82	31
154	1059	34	13	31
95	970	250	-51	31
108	656	408	13	31
54	310	145	-119	31
55	-423	-397	-102	31
-22	-580	-515	-95	31
-120	-424	-464	-164	31
16	-473	-698	19	31
-36	-309	-971	-49	31
-82	-230	-398	-60	31
-41	-101	486	71	31
-25	-21	682	56	31
26	98	709	87	31
111	124	611	-9	31
173	-16	585	-29	31
-96	-36	508	182	31
21	-212	177	207	31
274	-92	-26	206	31
99	144	-163	221	31
150	-202	-296	106	31
-59	-335	-258	24	31
-177	-71	434	-113	31
-36	7	442	-143	31
-68	74	-368	-88	31
-59	26	-605	-76	31
-185	-39	-836	-24	31
-149	176	-793	-15	31
-69	469	-332	-19	31
-15	536	65	-81	31
42	194	295	-117	31
-19	-234	437	6	31
63	-516	271	129	31
148	-533	-80	168	31
41	-270	-173	42	31
-102	22	-257	-302	31
44	139	-137	-348	31
97	48	115	-97	31
-79	-19	297	-77	31
-49	60	330	14	31
-1	275	328	114	31
26	383	326	31	31
-48	305	179	64	31
-129	277	-52	116	31
-82	191	-239	101	31
3	-140	-189	-36	31
102	-483	-97	-69	31
19	-576	16	-10	31
139	-385	116	59	31
247	-330	205	182	31
73	-275	411	23	31
-34	137	272	0	31
-86	338	149	52	31
94	408	254	7	31
-38	328	25	142	31
-336	215	-59	112	31
-154	396	-131	34	31
-66	236	-81	-78	31
-50	87	171	-192	31
17	69	-124	-5	31
14	-281	-428	169	31
56	-403	-457	26	31
14	-350	-450	-7	31
-18	-225	-223	43	31
163	449	257	-133	31
243	1024	509	-113	31
18	697	275	-34	31
49	-293	-45	24	31
99	-1035	-17	41	31
-17	-884	116	10	31
21	-535	100	47	31
8	-411	69	22	31
-37	-227	-103	26	31
-3	-56	-177	-54	31
59	356	-342	-74	31
-96	569	-346	-99	31
-36	420	-83	35	31
67	129	-22	299	31
15	-305	33	156	31
-2	-240	10	-34	31
-94	-164	59	-39	31
166	-225	141	16	31
115	-126	69	-2	31
-130	-49	12	-14	31
177	77	37	3	31
221	104	142	2	31
16	119	222	21	31
1	114	285	-2	31
-30	92	159	-10	31
-14	120	-194	2	31
-102	146	-432	26	31
-159	192	-433	-66	31
-101	189	-254	-207	31
-131	265	345	21	31
-92	538	1036	219	31
-100	591	947	-124	31
-82	247	444	-266	31
21	-129	-91	-89	31
44	-463	-764	-6	31
88	-398	-839	42	31
76	6	-968	59	31
-10	235	-1038	51	31
8	336	-287	14	31
-8	98	-130	-18	31
-61	-147	94	-76	31
22	-164	616	-82	31
-6	-352	724	-6	31
-72	-506	605	2	31
-27	-489	245	77	31
-82	-333	14	315	31
-138	-2	-223	222	31
-49	380	-224	-79	31
26	659	-81	-109	31
27	568	43	-107	31
59	87	12	-93	31
83	-574	-31	-39	31
94	-890	116	15	31
113	-343	90	66	31
93	152	122	21	31
34	134	67	-39	31
14	177	183	-35	31
56	361	564	136	31
31	631	384	292	31
-50	506	-394	265	31
-67	127	-573	239	31
-97	-353	-373	92	31
-37	-960	-237	-132	31
11	-538	496	-201	31
-229	272	752	-260	31
-159	446	635	-189	31
144	541	503	-24	31
97	179	54	7	31
136	-358	-352	-11	31
179	-484	-778	-137	31
106	-307	-1094	-177	31
95	144	-862	-201	31
-4	69	-257	-99	31
-51	-197	230	120	31
26	26	912	231	31
127	9	823	236	31
-54	-4	52	137	31
-190	237	-403	119	31
-129	268	-993	-15	31
-177	139	-968	-37	31
44	-102	-413	23	31
141	-297	19	17	31
32	-331	348	157	31
6	-165	521	165	31
-70	61	986	56	31
11	92	922	-42	31
106	116	401	-235	31
126	169	56	-249	31
44	246	-175	126	31
72	341	-280	264	31
74	307	-379	91	31
-89	329	-99	9	31
-101	234	253	-144	31
-98	-97	322	-153	31
-123	-233	48	-14	31
-106	-410	-220	1	31
7	-586	-185	-1	31
-9	-331	-112	-145	31
-108	-122	42	-318	31
-11	-41	302	-271	31
126	152	440	97	31
76	367	17	422	31
25	559	-872	263	31
87	557	-919	97	31
89	281	-177	52	31
211	-270	49	55	31
302	-618	249	210	31
-92	-540	289	139	31
-327	-378	181	-63	31
-84	-106	398	-152	31
-75	27	470	-186	31
12	49	464	-63	31
47	154	188	14	31
-71	224	-121	20	31
42	583	-408	16	31
-15	1483	-522	-77	31
49	1991	-332	-161	31
83	1115	-265	-166	31
57	-583	-93	-81	31
111	-2195	202	-72	31
7	-2396	319	33	31
-28	-1386	51	198	31
57	-524	-62	250	31
104	185	-56	272	31
-13	358	-432	57	31
-66	451	-635	-89	31
-60	667	-187	-24	31
-57	613	345	21	31
-99	448	364	-12	31
-120	116	281	-139	31
-76	-413	179	-179	31
-54	-732	286	-161	31
-17	-427	342	-22	31
-126	-174	197	56	31
-120	14	515	96	31
19	19	610	122	31
152	-212	66	22	31
201	-293	-332	1	31
115	-390	-335	-11	31
34	-52	-184	-72	31
-47	200	-14	-199	31
-57	124	-328	-95	31
-93	92	-582	6	31
-41	57	-475	-44	31
-58	310	-222	4	31
-116	445	157	31	31
4	401	155	136	31
-51	372	513	109	31
57	285	340	59	31
225	259	-457	231	31
87	345	-336	214	31
-47	596	-203	71	31
-141	609	-163	109	31
39	277	-225	129	31
122	-139	-210	40	31
-44	-599	-162	-9	31
7	-687	-125	-57	31
-1	-417	416	-59	31
-52	-223	442	-59	31
-66	-52	235	-117	31
-25	26	284	-94	31
15	79	377	-37	31
-15	178	255	-10	31
42	169	14	-109	31
44	92	-134	-229	31
-76	-94	-374	-73	31
-126	-206	-161	75	31
165	-202	101	32	31
159	-179	272	49	31
-24	-108	205	30	31
147	-57	-405	17	31
36	32	-359	-24	31
-54	67	219	-62	31
-61	44	690	9	31
-75	89	1292	16	31
17	308	1231	-27	31
1	569	642	-34	31
-4	511	-171	157	31
-49	214	-1225	412	31
-92	-373	-1369	146	31
-56	-878	-1143	-189	31
41	-601	-997	-6	31
27	-137	-770	133	31
55	222	-609	154	31
102	516	-186	-145	31
53	396	304	-229	31
152	94	555	-56	31
137	-381	575	-97	31
65	-674	551	-22	31
21	-376	290	-50	31
-67	-1	116	46	31
-80	46	156	48	31
-44	-111	310	-44	31
-63	51	514	-104	31
-18	239	477	-141	31
-30	319	242	-74	31
-151	487	-209	121	31
5	423	-333	254	31
118	340	-159	-101	31
55	189	-174	-195	31
31	-56	-311	-87	31
-59	-405	-127	-9	31
-112	-784	298	160	31
12	-762	284	86	31
39	-402	77	66	31
-44	19	7	44	31
32	177	-22	59	31
27	314	-189	76	31
-25	305	-357	51	31
6	17	-345	84	31
19	-120	-161	24	31
-102	-217	81	-5	31
-205	-231	91	-15	31
-38	-34	-49	-29	31
119	99	-49	-1	31
98	109	55	21	31
49	183	110	0	31
39	230	454	-66	31
154	230	782	-138	31
158	166	684	-69	31
9	209	147	82	31
94	352	-550	124	31
71	170	-626	134	31
6	-163	-149	57	31
-2	-276	-6	-207	31
-74	508	-108	-365	31
-71	1449	-204	-124	31
-116	919	-235	92	31
-116	-477	159	94	31
-112	-1506	117	136	31
-77	-1342	108	99	31
-31	-714	212	39	31
-117	-357	-93	22	31
-79	180	-159	89	31
120	277	-318	58	31
127	204	-377	-39	31
85	71	-214	-33	31
76	-226	142	-82	31
60	-237	442	-52	31
52	-75	310	-21	31
-77	228	234	20	31
-70	337	316	223	31
-41	318	374	259	31
-95	213	296	47	31
-88	-43	-125	87	31
-82	-228	-533	164	31
-34	-206	-555	35	31
-2	-11	-641	-21	31
7	205	-490	-229	31
12	343	-127	-262	31
35	332	58	-119	31
9	323	62	-139	31
51	75	-36	-108	31
179	-282	228	-50	31
82	-149	511	1	31
4	242	462	19	31
32	204	209	64	31
47	-315	19	47	31
-65	-576	-261	-13	31
-72	-357	-550	-104	31
27	-102	-367	-250	31
-40	41	-49	-13	31
3	172	244	265	31
12	633	704	30	31
-9	1002	1070	-45	31
-48	707	934	138	31
64	-223	548	151	31
176	-1275	-154	212	31
39	-1180	-1087	171	31
59	-515	-1439	56	31
44	-185	-1168	-82	31
7	49	-584	-103	31
1	123	-1	4	31
8	350	197	-107	31
20	540	468	-78	31
-62	392	558	3	31
-69	72	410	-36	31
-102	-237	495	2	31
-130	-273	506	4	31
-109	48	308	21	31
-66	231	-54	10	31
8	127	-385	-7	31
21	95	-499	15	31
38	-56	13	12	31
67	-126	184	12	31
50	-31	-12	11	31
68	29	-19	-30	31
135	74	-149	-79	31
90	129	112	-103	31
-13	215	217	-159	31
-13	155	92	-132	31
19	81	74	-35	31
-4	-41	-127	160	31
-39	-166	-175	440	31
-68	-147	139	410	31
-86	-104	265	159	31
-74	-14	164	49	31
-60	-4	-39	62	31
-47	14	-373	-6	31
-71	135	-398	-248	31
-77	222	-247	-258	31
-79	139	-38	-47	31
-109	-36	58	-53	31
-18	-181	-173	44	31
112	-249	-380	112	31
176	-93	-568	-27	31
235	-8	-625	-199	31
220	-5	-85	-139	31
102	72	851	-2	31
0	32	937	-104	31
-78	-5	354	93	31
-161	-56	410	150	31
-119	-79	472	87	31
-3	-12	316	64	31
44	38	490	-38	31
111	83	-26	44	31
86	44	-747	136	31
106	27	-738	81	31
160	34	-504	-54	31
57	29	242	94	31
38	36	902	221	31
51	1	672	73	31
-37	4	-284	-189	31
-448	6	-1136	-190	31
-705	9	-989	-341	31
-312	20	-29	-496	31
-158	21	801	-26	31
-191	33	1198	222	31
-40	66	593	249	31
64	224	-468	143	31
380	330	-706	244	31
413	134	-1245	462	31
452	-169	-791	-4	31
533	-393	341	-271	31
215	-408	468	-244	31
119	-159	475	-319	31
-27	-30	-229	-64	31
-209	236	-1458	128	31
-483	675	-2000	156	31
-602	606	52	-56	31
-110	400	2120	-375	31
284	-37	2053	95	31
303	-709	1903	533	31
227	-694	1217	272	31
282	-458	591	-454	31
219	-350	-102	-828	31
151	-140	-763	69	31
136	-5	-767	215	31
96	-137	-500	-648	31
46	-273	-620	-989	31
-49	-12	-1210	-353	31
1	67	-783	1241	31
-6	40	-77	1642	31
10	106	1142	523	31
8	82	1685	26	31
-54	95	187	234	31
-104	86	-1680	306	31
-227	210	-2524	454	31
-299	325	-1059	262	31
-289	346	-62	-145	31
-162	376	1343	-120	31
-80	207	2415	-59	31
-38	-11	1324	-344	31
-41	104	658	-555	31
-61	200	-1433	-505	31
12	-129	-2194	-673	31
67	-493	-1416	-453	31
136	-396	-548	-101	31
92	-81	649	364	31
119	-42	558	782	31
103	24	380	683	31
-26	123	308	70	31
44	92	748	-778	31
-36	7	970	-1202	31
-51	-185	941	-1418	31
69	-197	102	-468	31
-11	-57	-1488	329	31
-197	69	-1662	288	31
-226	66	-125	916	31
-80	66	1227	1345	31
-10	56	660	687	31
57	-96	159	-112	31
102	10	652	360	31
118	116	665	216	31
142	-49	184	-72	31
141	-98	59	163	31
65	-43	228	-192	31
-13	2	1029	-567	31
52	110	1187	-156	31
66	129	-85	1002	31
51	131	-1648	563	31
-57	168	-1950	409	31
-169	156	-901	617	31
19	151	-558	-770	31
53	27	-21	-1762	31
-42	-70	704	-1652	31
-66	-91	540	153	31
-205	-185	-126	917	31
-168	-172	-674	-285	31
-51	37	-747	237	31
47	305	-510	23	31
109	197	291	-697	31
-56	-79	911	181	31
-109	-112	1435	859	31
-57	-167	2505	910	31
-9	-41	1429	103	31
149	40	-942	144	31
207	-76	-2123	7	31
152	-9	-2255	-495	31
15	82	-1188	192	31
-176	224	-961	283	31
-254	167	-455	-213	31
-279	-8	385	-765	31
-193	12	412	-1123	31
9	-22	799	-42	31
159	-52	1288	1202	31
290	-64	2338	993	31
360	-47	1673	-2	31
334	26	-475	-874	31
194	6	-1689	-81	31
-4	-52	-2068	-516	31
-112	-94	-1204	-860	31
-65	-119	-496	565	31
-153	-84	116	170	31
-274	-42	918	289	31
-149	-35	1405	570	31
-102	30	1171	70	31
67	77	170	204	31
231	73	-116	657	31
127	99	-362	287	31
-25	78	-945	-453	31
-123	24	-535	-450	31
-126	-32	-72	-328	31
-152	-88	-1162	277	31
-280	-110	-1036	-183	31
-658	-115	616	-786	31
-623	-145	715	-186	31
94	-135	805	245	31
533	-59	588	65	31
551	-151	634	-708	31
264	-133	1087	-1215	31
14	132	281	-1401	31
14	311	201	-1558	31
-107	327	1097	53	31
-111	125	828	1648	31
102	67	-1085	1459	31
183	57	-1927	2719	31
329	-32	-1366	2582	31
532	36	-686	325	31
600	-47	-926	-529	31
522	-112	-676	-773	31
-44	-56	638	-490	31
-635	31	1054	-553	31
-407	88	716	-437	31
213	56	-576	-89	31
152	87	-1384	-95	31
-219	45	-445	-131	31
-202	-22	1258	-48	31
-69	-101	1501	430	31
-37	-180	578	26	31
-217	-138	-201	124	31
-313	-89	-272	386	31
-237	-1	446	-266	31
-150	99	1034	-89	31
48	81	2010	-51	31
163	77	918	-400	31
213	103	-1217	-241	31
229	40	-1761	-409	31
140	21	-929	-502	31
57	0	-32	-635	31
132	-43	-19	-272	31
166	-30	481	543	31
66	-47	498	843	31
-27	-47	587	240	31
-240	-60	128	-471	31
-279	-32	-1047	605	31
-109	67	-1597	954	31
-82	107	-1398	168	31
-144	81	-483	-353	31
-147	99	18	-934	31
-133	237	525	-697	31
-185	230	657	-209	31
-142	39	341	457	31
-121	-97	442	579	31
-141	-283	615	24	31
7	-347	975	-301	31
233	-100	829	-311	31
353	52	-343	211	31
263	97	-763	310	31
116	159	-238	-591	31
43	29	-293	-615	31
1	-283	-976	-215	31
-96	-446	-295	-625	31
-37	-144	1167	-24	31
74	107	276	808	31
-67	109	-472	1812	31
-180	130	-14	2138	31
-272	89	-348	779	31
-196	106	-355	-805	31
111	82	-126	-1165	31
294	44	241	-553	31
326	34	289	-417	31
110	-6	438	-551	31
51	19	128	-855	31
39	2	-363	-551	31
-102	-11	-77	-125	31
-19	-26	-203	-131	31
-156	-17	-4	-395	31
-239	56	120	121	31
-158	52	172	909	31
-126	-28	272	922	31
-144	-53	365	1179	31
-311	28	303	121	31
-131	53	448	-248	31
132	41	466	206	31
185	1	-736	-478	31
325	-51	-1143	-84	31
452	-39	-16	36	31
412	34	833	199	31
259	213	-283	181	31
268	251	-1239	-351	31
144	110	-1010	142	31
-121	2	-271	826	31
-69	-116	562	625	31
-61	-184	91	-571	31
-146	-48	93	-783	31
-125	190	478	-687	31
-122	296	553	-790	31
-91	298	714	-541	31
-94	41	551	-167	31
-41	-574	427	362	31
93	-711	75	221	31
58	-303	-428	17	31
-43	-102	-737	535	31
-24	-34	-769	454	31
92	-13	-343	502	31
122	-3	314	625	31
103	52	229	-512	31
121	23	166	-865	31
80	4	740	-608	31
47	-1	1027	-623	31
-43	20	427	-110	31
-87	45	31	186	31
-23	63	460	149	31
-136	119	211	272	31
-225	139	-853	384	31
-176	188	-1456	689	31
-224	272	-541	393	31
-237	311	1157	294	31
-182	285	689	726	31
-19	121	-1308	161	31
334	-99	-1102	-660	31
529	-302	-452	-874	31
393	-349	323	-861	31
173	-144	884	-765	31
128	-78	-184	-375	31
203	-44	-648	344	31
153	80	-502	1557	31
16	62	252	943	31
-46	87	-217	-279	31
-96	61	-543	485	31
-119	13	214	327	31
-117	-7	502	-327	31
-263	-67	594	37	31
-330	-92	-156	-52	31
-245	-121	161	-209	31
-159	-34	207	-239	31
7	34	82	2	31
155	97	585	498	31
227	183	146	74	31
154	142	-66	-109	31
110	112	22	-47	31
115	31	278	-324	31
115	-17	412	-390	31
129	12	144	-474	31
93	7	-282	-510	31
33	29	-234	-508	31
-112	13	289	-222	31
-145	-15	-85	35	31
-119	-16	-465	141	31
-49	-20	158	84	31
11	-11	901	250	31
-34	-16	512	508	31
-107	-23	-72	868	31
-133	-6	-312	944	31
104	-1	-1234	-281	31
211	-21	-779	-265	31
106	-6	-234	-66	31
42	-16	-39	-347	31
-84	-29	256	36	31
-152	5	-784	-97	31
-227	2	-678	-244	31
-112	2	11	-476	31
36	-11	495	-183	31
-74	-9	513	65	31
-28	33	479	-30	31
-4	36	682	71	31
-40	43	74	133	31
-9	49	-99	234	31
57	28	116	174	31
67	-59	338	171	31
-65	-135	263	64	31
-13	-104	212	-66	31
24	-71	65	-124	31
-14	-40	16	-46	31
87	-22	272	-108	31
91	2	297	-370	31
60	38	-102	-196	31
41	39	-403	182	31
-72	21	181	298	31
-79	-16	-102	206	31
-29	-33	-408	-3	31
-38	-19	109	-182	31
-35	10	96	-20	31
-24	29	-443	279	31
82	26	-593	343	31
129	24	-586	369	31
21	78	-814	228	31
34	210	-214	21	31
194	221	395	-2	31
88	92	747	-73	31
-91	-23	189	46	31
-26	-225	-303	126	31
-54	-360	-278	137	31
-80	-180	-29	82	31
-35	-27	483	-34	31
39	-47	162	17	31
67	26	385	-258	31
39	66	347	-510	31
-24	44	-26	-440	31
-144	45	165	-227	31
34	22	711	182	31
144	12	578	358	31
84	-7	-190	-145	31
82	14	-340	-344	31
27	26	-703	-167	31
25	44	-521	-362	31
-31	70	-65	-256	31
3	39	575	-219	31
-27	30	1373	-215	31
-178	21	878	149	31
-217	25	-533	413	31
-134	12	-1820	380	31
-181	-23	-1812	209	31
-164	-22	-1000	163	31
89	-4	-784	22	31
-52	23	39	-24	31
-139	31	1627	-178	31
35	-2	1534	-270	31
57	-31	402	97	31
-46	36	-71	532	31
13	280	155	494	31
130	785	461	176	31
136	1008	-185	228	31
105	545	-1328	278	31
-1	-122	-1649	181	31
26	-955	-224	-282	31
14	-1322	1090	-532	31
22	-798	726	-238	31
-42	-383	496	-132	31
-169	-136	405	-164	31
-97	-13	202	-251	31
-30	2	121	-330	31
-75	89	13	-207	31
-24	42	54	87	31
76	66	333	79	31
96	68	963	-74	31
185	54	549	73	31
87	92	-696	208	31
31	96	-862	254	31
56	124	-237	260	31
-14	141	71	199	31
-130	234	593	75	31
-159	270	618	32	31
67	-37	-563	-5	31
153	-310	-1273	-81	31
234	-129	-1356	69	31
120	67	-175	17	31
-149	118	1467	7	31
-302	184	1526	279	31
-250	159	159	-33	31
-20	96	-568	-282	31
4	48	-83	-148	31
258	161	-426	30	31
185	149	-944	362	31
-138	-320	-1092	384	31
101	-511	-812	73	31
99	-297	21	-321	31
53	-222	455	-327	31
200	-62	354	-208	31
34	108	311	-240	31
-124	155	334	-153	31
-127	243	198	-127	31
-72	162	106	-32	31
-12	95	99	16	31
8	53	143	36	31
-47	-26	95	67	31
-104	-11	289	-4	31
-64	-34	721	24	31
131	-19	505	48	31
82	11	-289	59	31
177	40	-654	141	31
368	61	-239	185	31
-23	72	347	81	31
-158	140	498	16	31
-39	191	290	-1	31
-74	188	-504	-35	31
-139	141	-1133	40	31
-67	123	-452	26	31
111	71	-81	14	31
90	-7	-279	-45	31
-195	59	-654	-113	31
-283	375	-1082	-34	31
24	659	-14	-5	31
9	367	970	-47	31
17	-244	1158	-112	31
265	-766	829	-81	31
361	-1044	709	68	31
169	-674	1238	172	31
29	-58	939	-34	31
208	103	438	-142	31
-43	77	-52	184	31
-72	-21	-946	425	31
128	-275	-700	214	31
-189	-72	812	64	31
-362	135	328	121	31
-174	-144	-672	-75	31
-51	-124	-558	-273	31
-10	227	-1122	-163	31
-19	383	-1681	319	31
-171	254	-1044	212	31
54	51	426	-52	31
208	203	103	-99	31
123	804	107	-334	31
149	988	873	-72	31
137	432	951	-100	31
162	-352	992	-104	31
70	-1150	-125	70	31
61	-1221	-994	2	31
59	-330	-897	31	31
-306	379	-173	-31	31
-272	373	495	-200	31
-129	253	928	-289	31
-181	-52	317	-51	31
123	-351	-550	37	31
4	-282	-199	-4	31
24	-226	63	324	31
36	-82	401	392	31
-95	-88	684	28	31
120	-59	877	14	31
-37	190	588	-26	31
90	300	-506	-121	31
157	350	-1330	107	31
22	163	-1411	6	31
227	-242	-560	-161	31
93	-675	-103	171	31
-111	-656	27	176	31
-54	-187	613	-33	31
-75	103	620	-122	31
-223	230	503	-492	31
-94	24	555	-638	31
273	-201	185	-246	31
171	182	-230	562	31
-182	517	-980	725	31
-224	595	-1094	279	31
54	665	-140	53	31
45	519	81	-26	31
23	470	-152	149	31
147	171	270	166	31
132	-214	971	84	31
117	7	1019	127	31
42	246	456	134	31
17	295	-64	49	31
-240	99	261	-174	31
-339	-67	452	-265	31
-249	-140	-14	-162	31
-29	-636	-169	16	31
29	-729	-420	-56	31
33	-431	-358	-239	31
239	-476	122	-255	31
-70	-601	545	-273	31
-245	-611	669	-171	31
-127	-230	132	7	31
167	128	-527	49	31
289	217	-169	121	31
29	290	366	287	31
-22	604	-457	318	31
-86	830	-952	210	31
-26	-71	-972	51	31
162	-950	-1023	-107	31
137	-995	99	-218	31
-159	-579	1032	-228	31
-149	-79	587	-365	31
215	-32	-990	-254	31
-22	261	-1613	204	31
-76	637	-521	444	31
39	923	621	270	31
-6	961	920	-61	31
81	431	714	-44	31
-284	194	717	-64	31
-112	331	583	-36	31
137	553	311	227	31
-64	479	-232	434	31
12	185	-519	161	31
1	135	-752	-96	31
109	152	-20	-84	31
171	99	1916	-214	31
-212	-15	1886	-74	31
-693	-243	458	-5	31
-734	-633	-629	-91	31
-162	-445	-1117	-146	31
149	172	-1167	-223	31
447	343	-1713	-219	31
669	631	-1796	227	31
209	793	209	560	31
59	679	1672	240	31
68	571	307	205	31
81	-46	-651	282	31
193	-1198	-77	157	31
322	-2742	465	108	31
159	-2810	141	-69	31
-140	-1494	-152	-439	31
-66	-795	68	-520	31
43	-368	-108	-560	31
89	-409	67	-528	31
-70	-485	881	-45	31
-78	-170	956	121	31
-129	377	162	111	31
-186	1053	339	153	31
-53	1135	458	338	31
-20	1042	173	382	31
14	884	-70	51	31
112	643	302	-107	31
287	468	695	-109	31
-292	283	-412	240	31
-462	182	-1080	449	31
316	96	-1141	177	31
123	74	-430	-154	31
14	41	-334	-171	31
148	44	-357	-109	31
36	66	360	-297	31
109	47	17	-51	31
-161	40	101	44	31
-265	-54	595	-118	31
-108	-139	761	-282	31
99	31	93	-504	31
142	439	-1100	-254	31
119	481	-755	362	31
121	31	703	493	31
-298	-433	1297	-17	31
-365	-673	176	263	31
166	-203	-558	372	31
295	426	160	-84	31
14	337	144	-31	31
-159	-11	-434	106	31
-31	-343	-1059	136	31
42	-544	-766	82	31
73	-350	21	119	31
34	48	-255	-39	31
-235	260	268	-133	31
-144	318	776	7	31
-51	372	757	91	31
-81	387	132	-34	31
44	424	-886	-380	31
97	343	-821	-494	31
-174	172	-27	-252	31
-179	-199	1131	185	31
-47	-664	832	345	31
46	-562	-140	162	31
383	-247	-598	149	31
150	-99	-646	186	31
39	4	-244	71	31
-31	15	7	69	31
-49	76	142	-7	31
111	81	14	-91	31
-28	29	-114	-194	31
-42	-5	-165	-387	31
63	-9	308	-441	31
393	26	449	-411	31
148	-42	122	-199	31
-254	-21	-90	276	31
-159	17	-668	637	31
-48	12	-182	492	31
116	155	955	348	31
310	206	1082	368	31
449	319	673	172	31
47	328	225	138	31
-31	-96	-57	204	31
90	-240	-358	-77	31
-66	-239	-294	-155	31
7	-141	299	-194	31
-238	134	703	-389	31
-292	28	654	-291	31
-126	-155	179	-182	31
-39	-378	-284	-94	31
-67	-382	-671	-24	31
-121	-131	-814	-87	31
31	-29	-496	-228	31
-29	109	-16	-217	31
-2	143	252	28	31
127	121	116	137	31
190	3	-51	157	31
151	-171	-437	128	31
-108	-234	-744	-24	31
-280	-240	-498	-21	31
-237	31	98	14	31
-161	235	525	-11	31
27	235	92	47	31
106	212	-492	100	31
-73	170	136	-41	31
26	142	741	-242	31
-43	14	336	-303	31
-104	-44	-74	-162	31
66	-84	-990	207	31
64	-92	-445	479	31
79	20	729	385	31
77	36	449	101	31
74	66	-87	45	31
-59	138	-947	319	31
-42	170	-865	405	31
-66	196	-519	154	31
-98	249	106	-76	31
55	392	309	-197	31
-33	382	-290	-99	31
-146	-24	-3	-71	31
-117	-365	773	-61	31
96	-410	1137	-31	31
114	-422	753	-61	31
-12	-221	532	-6	31
-126	-87	110	-65	31
-12	-128	-433	-84	31
161	-30	-422	-143	31
-12	-14	480	-182	31
206	9	1115	-138	31
291	-10	486	-46	31
-91	-52	-407	70	31
-238	-6	-1009	145	31
-76	61	-783	244	31
66	217	-136	141	31
80	230	290	-129	31
109	113	324	-363	31
61	9	12	-310	31
-46	-104	-200	-47	31
-140	-139	462	72	31
-62	-24	1092	7	31
53	283	219	-19	31
-44	559	-904	62	31
-77	648	-1302	118	31
32	348	-645	167	31
143	-102	134	322	31
195	-365	-124	387	31
150	-810	-410	120	31
-26	-730	-377	-35	31
-99	-96	-174	-149	31
21	114	27	-348	31
16	31	132	-289	31
-74	-536	279	-359	31
-180	-843	279	-292	31
-127	-456	134	376	31
-84	-190	101	493	31
-90	123	115	1	31
-2	375	427	-1	31
6	593	817	96	31
112	711	501	55	31
29	531	161	-45	31
-22	784	-900	-106	31
45	779	-1436	-74	31
22	103	470	-111	31
129	-358	1465	-7	31
92	-860	1041	167	31
47	-977	117	250	31
28	-601	-443	204	31
68	-231	-269	6	31
306	99	-589	-61	31
37	148	-526	7	31
-590	116	-421	-78	31
-280	-132	-225	-36	31
50	-114	-310	-32	31
-222	415	-180	-102	31
-48	624	149	-50	31
159	381	316	-21	31
142	-4	684	-61	31
-50	-385	309	-188	31
162	-455	134	-156	31
472	-63	117	102	31
72	72	172	366	31
52	148	468	196	31
81	350	751	-89	31
-41	278	585	-79	31
26	150	-229	-82	31
-26	-164	-1226	-7	31
0	-266	-1889	-29	31
-67	36	-530	-116	31
-54	255	683	17	31
-44	276	332	144	31
-41	199	2	144	31
14	72	-328	116	31
-34	-117	-258	32	31
69	-13	-207	30	31
163	292	-116	110	31
119	338	-99	63	31
-22	157	-285	-82	31
-114	-109	195	-395	31
47	-496	685	-598	31
95	-689	558	-361	31
-121	-401	302	81	31
-141	-113	80	87	31
-41	-56	-49	19	31
-24	39	-90	485	31
-28	95	-42	389	31
71	89	141	143	31
32	101	80	167	31
-243	89	78	-122	31
-111	187	89	-121	31
-30	392	-29	-13	31
19	536	-141	105	31
207	492	-407	9	31
82	208	-482	-220	31
114	-300	-144	-204	31
56	-689	666	-119	31
-22	-666	1263	11	31
102	-380	728	184	31
69	-209	-68	321	31
-60	-160	-624	86	31
-354	59	-966	-62	31
-379	67	-567	-13	31
-54	53	316	127	31
24	90	631	250	31
-45	-64	293	59	31
71	-94	244	-91	31
213	-113	-21	-126	31
-15	-55	-374	-64	31
-107	46	-252	-32	31
168	164	-332	14	31
66	320	-392	66	31
111	368	-171	-46	31
234	233	-1	-154	31
-7	-48	49	-233	31
71	124	-116	-232	31
-13	500	-222	30	31
-127	486	350	260	31
-42	256	1247	192	31
-67	-209	1011	101	31
-20	-548	199	-219	31
-85	-312	-135	-458	31
-109	12	-659	19	31
-62	209	-902	408	31
-55	366	-728	219	31
-27	255	-377	109	31
-20	32	-119	132	31
24	-490	-31	-154	31
172	-852	194	-313	31
113	-237	93	-267	31
96	317	-149	-44	31
99	373	-333	347	31
-126	0	-270	352	31
-15	-862	-251	45	31
-7	-953	151	-91	31
-109	-263	919	-84	31
-46	87	884	-67	31
-29	93	574	24	31
27	72	204	27	31
-113	69	123	16	31
-119	172	196	-4	31
64	436	99	-11	31
71	572	-239	109	31
116	475	-376	117	31
48	179	704	71	31
-11	-229	1049	78	31
47	-365	-21	11	31
-36	-115	-1288	-32	31
59	322	-1539	-2	31
119	537	-707	41	31
-91	312	-486	-2	31
-126	-134	-397	-67	31
-259	-478	-125	-86	31
-177	-466	92	-116	31
136	-170	580	-113	31
136	2	797	-119	31
54	-16	681	-99	31
-41	44	486	-29	31
52	82	328	16	31
183	109	144	31	31
211	122	2	45	31
101	63	-33	57	31
54	53	22	71	31
35	45	64	63	31
-17	122	-84	-48	31
15	272	-258	-109	31
-67	285	-347	-122	31
-72	169	-229	-141	31
-184	-56	-166	59	31
-209	-345	-195	204	31
-14	-401	-143	117	31
-41	-249	-54	119	31
-126	2	315	181	31
-157	232	567	124	31
-127	202	517	34	31
91	215	466	-73	31
240	360	82	-166	31
265	470	-793	-158	31
221	370	-1171	-109	31
109	-107	-457	24	31
80	-830	414	57	31
80	-1154	966	32	31
8	-637	663	89	31
-138	-186	-247	27	31
-37	-71	-629	-24	31
-27	54	-610	-86	31
-122	50	-516	-227	31
-1	81	-247	78	31
-2	95	-14	498	31
-37	114	46	365	31
-39	143	46	41	31
26	120	1	-34	31
87	127	-1	26	31
101	101	67	-57	31
72	91	364	-157	31
81	92	608	-209	31
94	94	602	-184	31
-32	97	537	-37	31
-73	99	302	-28	31
-77	130	119	-96	31
-81	131	-125	-18	31
-45	71	-235	29	31
-69	20	-71	-48	31
-138	36	-259	-159	31
-149	224	-337	-46	31
-97	398	-63	-17	31
-7	299	377	-131	31
123	42	964	-4	31
71	-327	613	147	31
-34	-450	-333	378	31
26	-294	-956	286	31
62	-185	-1690	89	31
114	-87	-1221	69	31
132	-13	180	-172	31
82	32	878	-244	31
-12	-8	761	-76	31
-259	268	-145	184	31
-193	596	-678	185	31
-67	273	-195	-27	31
-263	-243	274	-56	31
-119	-615	-45	-128	31
-166	-702	-41	-148	31
-126	-471	335	-114	31
412	-140	-3	-127	31
146	128	-207	-48	31
88	203	385	284	31
204	344	720	511	31
51	424	870	164	31
197	300	483	52	31
-7	179	-141	101	31
54	-86	-317	-46	31
81	-163	-778	-33	31
-57	-73	-486	-44	31
2	-70	-66	-38	31
54	-36	55	-94	31
83	-192	155	-149	31
6	-67	-9	-108	31
-39	261	253	-88	31
-69	244	189	-79	31
29	-27	101	-24	31
59	-320	107	37	31
37	-235	-9	42	31
36	-104	-19	15	31
29	-52	-72	-31	31
72	204	9	-40	31
59	513	-1	10	31
58	568	78	67	31
19	223	131	26	31
-2	-260	124	-29	31
-78	-663	76	-40	31
-149	-543	-47	117	31
-99	-100	-294	252	31
-106	-31	-613	3	31
-63	22	-538	-208	31
12	154	-311	-118	31
-42	277	392	116	31
4	484	578	220	31
1	411	10	-2	31
-165	154	-190	-127	31
-62	-174	-447	-77	31
-17	-508	-52	-132	31
27	-451	357	-55	31
136	-125	176	-55	31
102	47	219	-72	31
166	112	239	-13	31
154	230	312	-7	31
-53	270	52	26	31
-150	189	-443	19	31
41	36	-247	94	31
39	-240	452	111	31
-52	-462	597	34	31
30	-336	-64	-51	31
-97	-6	-453	-22	31
-114	82	-115	14	31
-8	-9	-161	64	31
-134	-77	-229	174	31
97	-205	164	195	31
309	-82	405	213	31
63	127	578	82	31
12	155	204	-332	31
8	194	-97	-590	31
-23	175	-176	-231	31
-31	288	-550	363	31
-84	486	-597	743	31
-56	423	-565	382	31
-107	163	148	-76	31
-201	-105	1290	-202	31
-277	-310	1252	-332	31
-89	-131	443	-55	31
35	348	-721	36	31
17	355	-1310	64	31
269	-215	-969	24	31
122	-609	-413	-82	31
-31	-325	199	-69	31
32	-30	97	-165	31
19	-172	-472	-42	31
146	-269	-823	0	31
134	-84	21	62	31
49	184	1084	142	31
77	217	722	70	31
43	85	144	-41	31
-121	-51	-339	-91	31
-288	-188	-185	-9	31
-388	-46	205	27	31
-67	375	72	-41	31
6	523	254	-60	31
-91	363	372	27	31
100	-35	195	26	31
-29	-487	4	79	31
-62	-555	-232	121	31
105	-398	-473	79	31
189	7	-447	37	31
219	282	-60	72	31
154	186	340	154	31
57	62	487	-25	31
90	-244	363	-230	31
84	-302	180	-204	31
4	-101	26	-102	31
5	62	19	-32	31
-67	154	89	-25	31
-203	86	147	-21	31
-142	71	335	-80	31
14	34	391	-266	31
-11	62	63	-421	31
-34	70	-212	-330	31
6	64	-224	378	31
84	119	102	1118	31
127	127	735	517	31
66	139	456	-215	31
42	81	-417	-41	31
25	105	-996	26	31
-22	56	-1298	119	31
-66	-38	-699	13	31
-46	-67	-362	-96	31
84	-142	-425	-104	31
-34	-21	-151	-227	31
-234	111	34	-162	31
-58	118	157	-172	31
-50	43	-159	1	31
-85	-76	-119	123	31
5	-44	460	100	31
-64	83	620	82	31
10	257	683	1	31
182	210	582	-89	31
220	-51	59	-149	31
193	-255	-482	-174	31
194	-454	-329	-147	31
137	-569	848	100	31
257	-422	1324	227	31
14	-26	922	275	31
-334	169	345	214	31
-36	279	-576	76	31
-129	589	-924	128	31
-94	749	-499	-3	31
-15	569	201	-186	31
-232	104	149	-105	31
-22	-526	-223	33	31
117	-916	-365	101	31
24	-561	-553	36	31
-348	-95	-384	-111	31
-150	135	-235	-195	31
355	353	-116	-202	31
169	217	-71	-66	31
19	31	57	42	31
34	-174	154	51	31
-2	-191	-86	81	31
39	107	-47	124	31
65	143	66	121	31
22	4	96	-8	31
48	-220	254	-98	31
7	-223	285	-36	31
-65	-39	229	-69	31
-61	-52	415	-31	31
-67	-38	500	69	31
53	-2	130	-15	31
169	16	-393	-106	31
62	26	-765	-172	31
17	-4	-556	-69	31
121	11	-125	-20	31
39	46	-35	-17	31
47	94	169	19	31
74	144	502	-6	31
-110	151	861	87	31
-96	88	616	168	31
-79	51	-156	160	31
-98	61	-485	61	31
-116	34	-985	33	31
-106	21	-822	6	31
81	22	462	-54	31
122	29	1070	-55	31
-34	22	578	51	31
-98	2	-410	214	31
9	-4	-997	203	31
42	-19	-993	114	31
51	-4	-728	-39	31
69	21	-126	-110	31
42	31	313	-127	31
58	19	475	-127	31
-80	7	405	44	31
-223	11	156	171	31
-131	-1	151	103	31
31	72	74	-21	31
9	212	-170	23	31
-162	235	-101	89	31
-100	109	468	60	31
-41	-69	975	12	31
-56	-248	712	-68	31
-1	-157	117	-50	31
-5	232	66	22	31
162	523	-50	76	31
182	383	-467	126	31
84	-164	-266	17	31
146	-455	107	-134	31
185	-392	252	-139	31
72	-390	297	-169	31
-262	-249	540	-81	31
-225	-250	636	92	31
-42	-337	-4	-24	31
-140	160	-1188	-176	31
-91	602	-1697	3	31
-107	499	-826	18	31
-129	53	-493	-302	31
17	-375	-389	-467	31
82	-574	56	-427	31
131	-361	-47	152	31
132	186	96	777	31
227	211	505	406	31
281	84	556	-163	31
67	-16	420	-146	31
43	-127	363	-3	31
-2	-4	311	185	31
-116	-153	270	191	31
-59	-220	155	67	31
-77	-102	95	6	31
-20	59	152	-61	31
-51	338	146	-35	31
-97	459	164	-36	31
-38	392	81	105	31
-37	160	-42	171	31
25	-165	-94	49	31
16	-373	-199	-24	31
19	-199	-333	-96	31
65	27	-416	-118	31
147	14	-269	-46	31
174	57	-39	124	31
-92	71	19	252	31
-39	34	56	161	31
219	35	107	19	31
153	50	208	-34	31
97	92	289	-131	31
-112	71	185	-228	31
-160	47	27	-144	31
-23	31	-107	69	31
-69	-1	-50	19	31
-23	4	245	-157	31
-114	21	462	-88	31
-150	104	356	-2	31
11	215	-91	1	31
126	225	-608	42	31
202	154	-912	142	31
109	46	-280	181	31
-8	-194	605	163	31
-2	-495	257	144	31
-17	-446	-231	111	31
-27	-180	-345	-17	31
-95	-49	-659	-218	31
-160	96	-943	-307	31
-99	326	-574	-264	31
19	474	265	-101	31
57	375	528	6	31
-82	31	863	8	31
18	-495	1077	1	31
39	-594	632	-41	31
-86	-88	119	-20	31
19	247	-539	21	31
136	375	-353	41	31
176	401	479	84	31
-101	293	640	86	31
-199	283	349	-48	31
76	350	-204	-200	31
102	261	-665	-51	31
-44	120	-688	341	31
-161	-249	-445	480	31
-108	-1009	-299	104	31
104	-1153	-189	-71	31
71	-601	125	27	31
5	-255	401	-8	31
-9	-58	383	19	31
-43	61	339	-53	31
61	54	411	-180	31
48	91	249	-244	31
91	109	-137	-73	31
124	118	-516	417	31
6	137	-430	399	31
32	133	-140	-201	31
54	138	51	-268	31
-18	129	129	-39	31
-29	107	-273	94	31
-17	91	-363	159	31
-1	84	-78	-32	31
4	61	440	-64	31
-81	53	960	-69	31
-52	53	790	-29	31
-12	25	-5	46	31
-63	9	-1328	130	31
-20	22	-1902	124	31
-26	55	-869	9	31
-11	92	277	31	31
49	91	540	-122	31
101	62	859	-152	31
45	47	1031	-49	31
-30	34	1031	-135	31
-22	6	1260	-179	31
-29	-31	1080	-110	31
87	-31	462	-24	31
26	20	-402	-6	31
-116	66	-1187	24	31
-51	62	-1214	61	31
-56	27	-919	44	31
-61	-82	-877	26	31
-56	-195	-347	137	31
-9	-136	-32	219	31
122	-39	18	40	31
114	-25	156	-35	31
44	31	146	9	31
-17	144	119	14	31
17	347	-34	61	31
149	619	124	54	31
66	546	325	81	31
-1	208	468	112	31
42	-191	485	105	31
-7	-707	67	12	31
-32	-653	-458	-165	31
-176	-162	-515	-245	31
-295	88	-265	-147	31
-136	140	-45	31	31
-39	249	212	-71	31
-32	638	170	-232	31
121	682	249	-82	31
181	60	322	64	31
186	-831	170	242	31
104	-1223	51	275	31
16	-560	-129	77	31
149	-101	-308	-12	31
37	-300	-305	-84	31
-177	-306	16	-95	31
-84	-34	106	-121	31
-33	254	-129	-96	31
-97	315	-209	56	31
-117	101	91	158	31
-180	-182	450	118	31
-163	-139	701	105	31
-41	90	242	121	31
158	134	-141	89	31
223	120	-6	168	31
107	86	-244	86	31
116	98	37	-89	31
9	182	352	-168	31
1	326	200	-91	31
98	401	-181	-17	31
64	312	-424	-41	31
111	133	-371	27	31
34	-237	37	-18	31
-84	-400	224	-74	31
-48	-255	-25	-91	31
-9	-98	-56	-73	31
-31	60	-257	-39	31
-35	32	-201	-26	31
-111	42	-64	41	31
-97	72	131	14	31
-52	19	499	29	31
-81	31	480	69	31
-59	1	180	77	31
-102	43	-111	105	31
54	133	-475	131	31
190	172	-636	104	31
62	117	-415	24	31
37	14	-169	61	31
83	-91	173	29	31
37	-168	-5	-146	31
-9	-139	-256	-37	31
2	-49	19	26	31
-59	49	310	-246	31
-86	34	526	-192	31
-96	11	227	-166	31
-157	21	-56	-286	31
-129	31	41	-214	31
-85	115	109	-114	31
-21	180	51	113	31
30	223	-36	242	31
17	142	42	222	31
1	-168	-123	142	31
54	-282	-281	66	31
192	-83	-337	7	31
107	-70	-325	18	31
-20	-139	-260	67	31
70	-66	106	119	31
111	8	714	166	31
-41	31	586	58	31
-158	49	258	-74	31
57	143	35	-101	31
51	159	-268	53	31
-168	299	-303	142	31
-110	636	-76	-49	31
-23	638	274	-183	31
-11	321	694	-121	31
44	-264	740	0	31
52	-1031	52	267	31
69	-1073	-528	337	31
167	-549	-836	147	31
106	-422	-1178	-4	31
88	-337	-741	-238	31
24	-87	345	-204	31
17	49	1114	-107	31
39	170	1147	-109	31
-24	393	259	-5	31
-55	668	-722	6	31
-137	558	-912	18	31
-47	97	-371	-28	31
-155	-244	209	-28	31
-146	-341	154	71	31
53	-170	-133	217	31
179	130	-428	199	31
142	244	-216	123	31
-54	135	252	152	31
107	21	210	58	31
101	41	152	-2	31
22	205	81	-240	31
119	453	-6	-362	31
96	647	155	-30	31
119	465	902	-7	31
37	-222	949	-102	31
-109	-881	213	69	31
-217	-928	-51	17	31
-213	-689	-382	24	31
-42	-327	-405	79	31
-39	19	-454	-79	31
-28	62	-342	-199	31
65	205	-83	-137	31
1	281	-142	-12	31
68	272	-54	-1	31
99	174	-72	22	31
-27	-128	42	-30	31
-16	15	183	-42	31
88	534	147	12	31
69	685	-56	19	31
1	367	-136	67	31
104	-54	-124	143	31
-16	-404	-159	160	31
-128	-325	19	44	31
-34	-74	144	16	31
-139	-332	139	59	31
-103	-461	20	153	31
-34	-320	229	134	31
-122	-268	880	-116	31
-55	-53	1184	-187	31
-1	18	724	-144	31
23	31	-300	-39	31
138	129	-1370	125	31
105	154	-1527	229	31
124	315	-382	293	31
184	466	591	187	31
49	491	573	107	31
-81	385	382	78	31
-117	403	106	76	31
-144	889	250	108	31
-114	1171	688	96	31
179	657	535	-134	31
192	-162	-336	-560	31
-73	-956	-1463	-588	31
-52	-1256	-1855	-222	31
-95	-792	-1453	264	31
-72	-518	-414	200	31
-38	-998	403	-403	31
-124	-1130	526	-419	31
-134	-463	409	-128	31
-174	18	306	141	31
-22	171	495	236	31
197	144	817	226	31
169	400	910	124	31
181	978	453	-40	31
218	1171	-358	64	31
157	742	-885	39	31
117	-307	-661	108	31
-151	-1176	-134	111	31
-156	-926	156	100	31
-32	-219	-14	99	31
-59	46	-415	26	31
89	224	112	62	31
32	91	1054	89	31
202	-86	849	192	31
198	61	95	123	31
-104	-4	-190	-27	31
150	81	-468	-127	31
123	140	-523	-62	31
-24	121	180	45	31
6	200	528	-24	31
-92	147	326	-1	31
-41	137	153	-26	31
-105	101	-66	-156	31
-81	79	-55	-156	31
-60	84	-35	-59	31
-97	87	76	-29	31
-49	98	132	-43	31
-65	74	183	-14	31
-34	80	390	-26	31
-43	63	256	-140	31
1	44	29	-306	31
46	7	-162	-225	31
59	-24	-398	128	31
64	-9	-814	236	31
48	21	-891	70	31
52	82	-313	-48	31
17	165	67	-50	31
-46	245	220	173	31
-84	235	583	391	31
-61	88	906	107	31
-77	-167	819	-94	31
-42	-385	513	204	31
-11	-271	-127	478	31
-103	-105	-1029	418	31
-125	-110	-1136	-106	31
77	39	-798	-632	31
152	217	-786	-482	31
27	203	-713	-91	31
106	31	-314	109	31
64	-145	203	48	31
64	-220	852	-134	31
26	-106	901	-36	31
-106	132	132	32	31
-48	199	12	94	31
-107	72	122	46	31
-114	-235	257	-36	31
-102	-322	658	3	31
20	-84	906	-14	31
45	27	432	51	31
-52	219	-653	59	31
92	395	-1023	42	31
136	459	-831	-18	31
31	262	-203	-79	31
-93	-305	493	-37	31
-37	-509	674	51	31
103	-619	270	99	31
186	-547	-542	149	31
193	41	-195	239	31
59	288	777	224	31
-97	118	363	180	31
-259	-134	-262	24	31
-178	-297	1	-216	31
-73	-132	30	-360	31
-74	154	-288	-107	31
-27	323	-69	68	31
62	425	160	-121	31
77	308	107	4	31
-10	24	25	20	31
132	-322	-30	-83	31
163	-501	-2	-113	31
116	-256	157	-66	31
142	-120	351	120	31
111	-49	131	112	31
92	158	-202	12	31
74	235	-214	-128	31
65	275	134	-280	31
-107	151	656	-520	31
-129	-27	666	-306	31
-47	-4	-192	388	31
34	49	-989	484	31
53	30	-763	264	31
-144	25	-86	71	31
-53	148	115	-123	31
32	548	-91	109	31
-134	954	-200	182	31
-81	844	-131	-6	31
128	217	-182	-4	31
71	-704	-488	42	31
-62	-1124	-1210	-168	31
19	-782	-1108	-473	31
16	-498	471	-112	31
112	-220	666	332	31
250	-30	166	172	31
50	-32	585	111	31
-146	40	949	51	31
-191	32	1054	9	31
-79	61	-247	31	31
17	87	-661	-57	31
-120	78	-38	304	31
-70	88	247	679	31
18	117	478	368	31
20	267	-227	-414	31
37	333	-299	-895	31
-55	257	390	-704	31
7	-20	1874	-306	31
112	-326	2360	99	31
177	-224	881	464	31
122	7	-564	493	31
-7	46	-1405	312	31
-10	21	-1528	218	31
-94	-7	-1979	252	31
-222	31	-2691	482	31
-263	51	-2096	457	31
-162	37	-515	-316	31
-126	46	1252	-890	31
-46	34	2578	-598	31
220	36	1668	-100	31
203	14	525	-158	31
43	-1	67	-126	31
41	20	58	105	31
203	16	304	-154	31
213	-1	49	-144	31
75	-7	197	-128	31
40	2	129	-79	31
-44	-7	362	12	31
-54	-44	674	-80	31
17	-83	974	-16	31
37	-69	-506	150	31
-78	-19	-2497	604	31
-222	17	-903	746	31
-250	24	72	517	31
-41	-6	-602	125	31
21	-57	-239	-137	31
-240	-56	245	-346	31
-167	109	501	-690	31
-36	399	1154	-372	31
-16	448	1948	-693	31
-34	44	1225	-1642	31
16	-480	64	-1131	31
126	-609	67	225	31
116	-317	-830	1396	31
228	-182	-2572	2105	31
214	-87	-2000	2691	31
189	91	-1157	1979	31
99	156	-1576	-152	31
27	277	-510	-996	31
45	314	839	-918	31
-11	259	1665	-723	31
86	107	1915	-830	31
61	46	1115	-847	31
22	239	619	-543	31
17	273	-578	31	31
-69	151	-1197	580	31
-1	-17	-297	-406	31
25	-267	418	-1271	31
-37	-285	994	-1214	31
14	-188	803	-575	31
90	-274	171	682	31
51	-260	-1046	2592	31
-81	-152	-1658	3438	31
-142	-67	-1072	654	31
-169	22	-1441	-1171	31
-114	108	-1771	-328	31
87	257	-451	-258	31
64	143	1526	-339	31
-123	-1	1840	-192	31
-200	-4	1372	-208	31
-186	-49	1951	-575	31
6	27	2515	-534	31
163	16	2351	-51	31
96	64	170	533	31
44	190	-2376	437	31
44	258	-3123	-18	31
184	400	-1863	-548	31
306	344	-164	-1160	31
106	35	373	-557	31
10	-392	784	-59	31
-157	-596	1283	192	31
-523	-292	1603	332	31
-643	-48	431	307	31
-318	-323	-767	279	31
111	-518	-1070	206	31
-182	-378	-724	80	31
-465	-119	-314	-668	31
-124	209	166	-1469	31
399	214	1190	-1284	31
571	106	706	-279	31
423	202	175	999	31
555	267	310	2130	31
451	239	-658	1923	31
255	136	-892	531	31
155	122	79	-492	31
36	159	149	-627	31
32	157	-519	-309	31
-137	237	-1347	82	31
-272	261	-435	305	31
-328	96	490	305	31
-340	-248	19	-372	31
-362	-373	151	-629	31
-336	-137	43	-525	31
-176	-57	5	-156	31
-138	-127	-111	412	31
-132	-128	-110	-4	31
32	-101	132	-23	31
185	-41	328	371	31
205	42	465	221	31
274	71	331	-405	31
262	61	542	-281	31
180	92	1002	-129	31
92	79	1479	-338	31
-129	36	860	-355	31
-202	27	-742	-632	31
-252	11	-1696	-119	31
-297	-11	-2042	295	31
-178	-54	-1737	29	31
-216	-54	-292	228	31
-193	34	970	799	31
-63	64	922	1194	31
22	90	268	810	31
304	97	713	325	31
534	-13	962	306	31
476	-88	-282	-260	31
417	-79	-433	-695	31
273	-54	-19	-423	31
23	-34	-174	31	31
-79	-36	-464	267	31
-141	-7	-793	226	31
-144	30	-1000	12	31
-158	-17	139	-394	31
-260	-2	1897	-460	31
-412	23	1300	-640	31
-378	-9	-262	-92	31
-258	57	-529	743	31
-120	97	-380	807	31
29	50	-733	49	31
21	2	-579	-640	31
181	23	-164	-584	31
232	31	-447	-609	31
127	-27	-265	-157	31
-6	-3	333	-351	31
-66	54	565	-435	31
149	49	1262	-116	31
178	-27	1518	-250	31
169	-101	736	-45	31
349	-120	203	-139	31
206	-76	-399	134	31
-127	-24	-927	372	31
-62	-24	-706	89	31
106	-5	-474	357	31
137	47	-441	1031	31
94	126	-772	1306	31
-99	149	-758	638	31
-180	70	-233	-448	31
-134	13	-16	-636	31
-70	16	-72	-344	31
-8	8	47	-501	31
97	-9	637	-366	31
153	-28	849	-415	31
49	-51	1019	-447	31
-43	-42	606	36	31
-132	-10	-876	765	31
-168	-17	-736	2231	31
-205	-57	881	1830	31
-225	-27	1104	-1424	31
-46	17	510	-1889	31
156	-42	250	399	31
184	-97	-534	484	31
176	-102	-1033	-507	31
151	-35	-653	-269	31
176	75	-357	-44	31
265	131	-101	-582	31
235	170	208	-582	31
267	185	340	-632	31
195	152	484	-317	31
50	242	74	577	31
-9	333	-255	1164	31
-67	121	472	776	31
-75	-149	821	342	31
-122	-373	62	532	31
-120	-366	-984	-51	31
-141	-108	-1089	-339	31
-197	-69	-669	-304	31
-199	-67	-496	-127	31
-198	-14	149	-315	31
-65	-26	753	-645	31
27	-12	1287	-212	31
-2	-22	122	-7	31
-19	6	-1146	240	31
-30	11	-21	416	31
185	1	549	363	31
215	16	-164	64	31
11	23	-751	-238	31
81	47	-58	-134	31
88	34	219	-111	31
-85	21	190	-60	31
-140	31	453	-34	31
2	21	152	-29	31
-119	22	190	8	31
-189	21	-18	-11	31
-58	12	-104	-27	31
-56	1	-82	-107	31
-26	1	101	-6	31
-24	16	285	177	31
171	15	83	149	31
99	2	-156	11	31
-80	-1	-117	-98	31
29	-6	328	-179	31
45	-9	286	-78	31
-56	14	39	255	31
-101	42	-378	427	31
23	30	-363	269	31
37	0	110	120	31
-50	1	583	4	31
-142	5	577	-49	31
-94	1	-123	-27	31
1	4	-575	-75	31
35	-7	-714	-89	31
67	-21	26	-145	31
18	-33	8	-215	31
-49	-32	-586	-131	31
-38	-1	-442	64	31
138	37	-312	180	31
113	75	495	176	31
-9	81	961	62	31
-37	64	694	24	31
37	16	366	205	31
121	-82	-177	283	31
-69	-106	-931	-51	31
-51	-61	-1087	-607	31
-12	-47	111	-602	31
-66	-24	783	-338	31
-41	-9	470	-223	31
-91	-6	146	23	31
-45	3	-325	149	31
-1	19	-503	277	31
65	49	-324	465	31
109	38	-294	730	31
108	7	221	615	31
77	14	323	201	31
54	22	-71	132	31
99	6	557	78	31
62	16	938	-159	31
112	36	544	-687	31
-57	39	217	-816	31
-199	29	-41	-369	31
32	-9	-355	-260	31
-73	-24	-605	-376	31
-152	-25	-540	-122	31
-196	-16	-169	220	31
-64	3	-183	111	31
223	17	-462	-54	31
-87	13	-490	-17	31
-106	-13	-430	-31	31
75	-10	49	-22	31
108	-6	854	4	31
297	-1	882	52	31
244	7	670	257	31
61	24	714	360	31
0	74	-545	317	31
102	161	-2027	398	31
-7	230	-1401	364	31
-97	141	204	89	31
-81	-12	269	-155	31
-228	-219	21	-399	31
-107	-384	500	-209	31
-44	-235	303	156	31
-112	-33	30	167	31
-36	-5	363	140	31
19	61	655	94	31
117	141	219	37	31
157	215	-93	-199	31
45	406	220	-259	31
47	419	482	-135	31
-5	144	472	-90	31
-135	-179	246	-42	31
16	-569	-7	-24	31
92	-709	102	6	31
-82	-348	472	50	31
-129	-134	348	150	31
-40	-142	-375	199	31
-34	-31	-701	164	31
-42	7	-164	44	31
-177	104	242	-201	31
-185	204	-66	-365	31
111	204	-840	-267	31
55	159	-1247	-39	31
62	223	-116	82	31
93	694	808	-51	31
40	1023	548	62	31
141	980	-84	275	31
27	230	-862	152	31
23	-1054	-338	127	31
-59	-1242	117	26	31
-92	-612	127	-31	31
48	-326	407	59	31
5	-280	260	139	31
-11	-128	255	196	31
-153	46	142	52	31
-285	31	-52	-121	31
-69	41	-47	-175	31
52	57	260	-152	31
73	54	358	-181	31
106	71	-121	-141	31
40	49	-618	14	31
-59	52	-691	176	31
-37	36	160	74	31
156	29	778	-150	31
139	26	525	-78	31
89	64	134	-74	31
-3	91	21	-124	31
-95	34	29	111	31
-12	19	-1168	462	31
-73	14	-1479	325	31
-36	24	51	51	31
29	21	508	-6	31
-53	-14	62	-129	31
-44	29	81	-102	31
147	54	515	-116	31
97	32	538	-147	31
-37	-17	503	-89	31
220	-112	578	-21	31
250	-198	496	-10	31
-61	-176	309	0	31
-112	-94	-24	-79	31
96	-34	-146	-126	31
163	45	-326	21	31
118	99	-581	56	31
121	96	-691	46	31
-4	56	-502	65	31
-176	81	-238	106	31
-99	149	84	127	31
-114	184	536	97	31
-349	245	413	93	31
-32	253	-182	207	31
350	215	-360	217	31
233	151	-315	-16	31
-92	92	-244	-165	31
-416	151	180	-140	31
-57	253	249	-86	31
117	307	-14	-154	31
-81	197	581	-233	31
136	-119	861	-61	31
126	-422	-275	269	31
29	-468	-1464	265	31
36	-268	-1495	42	31
49	70	-236	-5	31
-58	385	84	-67	31
-179	669	401	-53	31
-89	835	1007	47	31
73	549	1004	-100	31
67	66	1175	-61	31
-113	-780	1045	177	31
-29	-1229	539	79	31
65	-410	-1110	-66	31
77	105	-1401	-250	31
172	-143	-668	-222	31
145	-561	-938	143	31
272	-625	-763	155	31
152	-308	-27	-68	31
-379	-83	269	-65	31
-322	105	131	-1	31
-230	16	428	69	31
-121	-7	608	119	31
-11	-63	641	-87	31
-21	-127	608	-145	31
316	46	246	122	31
12	42	-81	144	31
-361	269	-19	11	31
-124	747	247	57	31
118	734	-13	-26	31
257	57	-261	-94	31
229	-470	-114	-85	31
200	-616	-195	-156	31
-14	-509	-192	-12	31
-191	67	-157	89	31
41	508	-61	-60	31
78	690	85	91	31
-142	757	197	450	31
151	353	485	252	31
116	-346	472	-109	31
-510	-973	5	-46	31
-204	-1218	-546	24	31
98	-815	-310	-26	31
74	-32	312	-22	31
125	169	-14	-77	31
151	29	-911	-204	31
169	189	-844	-194	31
129	305	590	-6	31
250	571	1166	106	31
41	685	160	207	31
-2	552	-405	259	31
16	462	-478	29	31
-47	64	-367	-214	31
11	-209	31	-103	31
-31	-143	518	-31	31
4	-275	1181	-201	31
-82	-491	1313	-41	31
-225	-511	-328	300	31
-141	-401	-1644	357	31
-10	-119	-591	61	31
-264	275	291	0	31
-238	538	-434	14	31
177	696	-1090	-104	31
272	554	-854	-4	31
305	-306	-460	-279	31
-255	-892	-1	-314	31
-437	-396	221	-59	31
99	378	670	-54	31
31	1073	989	51	31
21	1507	547	51	31
62	1099	262	57	31
34	377	170	14	31
-44	-152	256	-87	31
-22	-685	219	-130	31
81	-829	6	156	31
-182	-900	-36	484	31
-320	-1047	245	107	31
-122	-726	106	-159	31
223	-170	-197	7	31
171	128	10	10	31
92	164	177	-21	31
242	150	495	-1	31
207	15	-1	32	31
7	-137	-662	-6	31
-140	-426	-543	-136	31
-1	-543	-397	-197	31
136	-298	-239	-116	31
75	-160	677	72	31
-176	-40	1288	229	31
37	-46	129	89	31
-158	-51	-508	-297	31
-660	127	-694	-352	31
77	302	-1290	-191	31
278	508	-853	-240	31
9	667	264	-7	31
250	612	870	628	31
194	408	1350	798	31
60	335	962	370	31
125	141	-319	181	31
167	-204	-304	157	31
101	-422	-233	26	31
-104	-553	-419	60	31
-427	-167	-490	-50	31
-296	361	-546	-96	31
-176	342	-397	-111	31
93	282	-601	-202	31
245	456	-382	-213	31
-98	769	559	-216	31
117	786	1592	-131	31
27	-43	1760	-145	31
-182	-779	759	-135	31
72	-835	-1043	-71	31
91	-828	-1892	-77	31
-143	-532	-1325	-238	31
-84	-173	-835	-308	31
77	-187	-826	-32	31
148	-9	-151	461	31
212	150	348	641	31
44	-115	372	280	31
-61	-280	1064	184	31
-243	-184	1037	145	31
-186	-181	1054	-89	31
54	-119	783	-217	31
69	106	232	-252	31
11	251	222	-153	31
7	521	-24	-125	31
-7	659	-140	-124	31
56	-10	-69	-47	31
267	-463	-54	31	31
189	-213	-509	-76	31
44	-3	-855	-94	31
-92	289	-276	392	31
-223	273	699	351	31
-137	164	649	-337	31
64	257	-402	-374	31
-70	183	-988	-317	31
-131	123	-696	-369	31
154	-1	305	82	31
169	-29	734	642	31
66	40	392	459	31
-66	66	513	78	31
22	52	-13	221	31
91	-19	-316	162	31
36	-61	-460	219	31
46	-170	-779	178	31
-55	-112	-300	-116	31
42	38	-69	-262	31
339	-12	235	-337	31
463	-134	712	-270	31
25	-227	1075	46	31
-216	-256	291	306	31
-109	-260	-552	-24	31
-217	-175	67	-104	31
-84	212	743	101	31
31	1032	571	211	31
-119	2055	-531	263	31
-120	2227	-1345	24	31
92	855	-1077	-106	31
72	-1096	-217	-72	31
-194	-2443	42	-59	31
-161	-2367	-105	-173	31
-38	-1298	-43	-287	31
32	-531	-444	-364	31
105	-91	-315	-190	31
84	150	206	103	31
129	237	690	81	31
169	247	1049	91	31
79	273	850	64	31
-184	373	711	-169	31
-184	336	267	-282	31
-37	303	301	-37	31
28	187	493	300	31
-8	10	219	53	31
-146	82	-268	-417	31
112	295	-1039	-504	31
21	388	-1178	-129	31
-218	137	-685	724	31
-2	-207	-72	1180	31
-59	-317	367	599	31
-69	-349	951	-107	31
142	-21	542	-139	31
118	588	-28	-16	31
65	664	261	185	31
177	243	-234	154	31
-22	-279	-1120	-27	31
-199	-684	-1963	-40	31
85	-631	-1910	-305	31
-6	-296	643	-340	31
-192	-172	2830	-136	31
34	-179	2312	1	31
-63	-175	826	181	31
-306	-74	-673	200	31
36	47	-1343	-128	31
133	52	-1993	-204	31
-76	182	-1345	-23	31
69	283	-94	-69	31
49	262	-38	35	31
19	197	317	94	31
130	118	189	72	31
161	107	430	29	31
11	84	544	-137	31
-126	67	332	-174	31
-83	24	219	-105	31
-46	56	-16	-49	31
77	150	214	-176	31
23	24	215	-183	31
-151	-185	448	-104	31
-100	-322	485	-117	31
177	-415	423	11	31
161	-197	429	251	31
-110	137	63	198	31
-44	252	-252	-90	31
-19	410	-411	-127	31
-20	631	-368	-122	31
62	805	-432	235	31
59	754	-189	631	31
89	303	359	239	31
92	-363	378	-36	31
1	-904	198	-35	31
-84	-825	372	-153	31
-106	-533	654	65	31
-174	-469	413	207	31
-149	-244	-591	127	31
14	-113	-1245	64	31
17	12	-1076	26	31
34	283	-472	23	31
-27	333	-30	-181	31
9	268	-264	-299	31
173	59	36	-167	31
222	-277	416	-52	31
331	-302	249	-98	31
-52	43	137	74	31
-231	219	543	166	31
48	347	1343	6	31
-82	462	1005	63	31
-10	321	-40	-66	31
190	330	-1064	-154	31
109	324	-1617	-56	31
-2	-51	-670	-67	31
-107	-400	442	-149	31
-4	-260	510	55	31
2	195	-71	133	31
-117	153	-204	-152	31
49	-295	-94	-70	31
81	-408	-372	54	31
-47	-544	-100	293	31
35	-418	816	377	31
139	84	1151	37	31
21	243	-16	-80	31
-46	202	-361	-209	31
136	-80	266	-404	31
39	-169	-162	-249	31
-104	268	-395	417	31
9	619	-508	765	31
57	558	-452	325	31
-86	53	-146	82	31
-275	-618	-215	-102	31
-78	-900	68	-275	31
26	-335	276	-141	31
-149	236	247	-90	31
-124	240	92	25	31
2	443	17	41	31
145	466	2	-1	31
54	135	245	-2	31
18	-225	1062	-155	31
231	-807	1257	-137	31
139	-880	259	-64	31
25	-284	-591	7	31
71	2	-520	49	31
-27	14	-268	-4	31
-126	57	322	-28	31
-158	6	422	-68	31
-127	-11	217	-16	31
-72	-10	-87	-28	31
-45	44	-770	-67	31
-36	163	-679	22	31
48	220	-338	31	31
229	244	173	-36	31
107	229	505	-57	31
-74	219	517	35	31
36	202	-187	337	31
49	137	-1345	307	31
64	106	-1310	-96	31
102	230	-866	-353	31
-17	519	-640	-320	31
-62	575	-157	-206	31
-9	250	350	-317	31
22	-197	387	-63	31
30	-653	372	746	31
-96	-656	729	775	31
-200	-287	1010	173	31
-195	-139	728	211	31
-295	-54	252	246	31
-59	29	48	-42	31
178	93	-143	-261	31
49	149	-568	-252	31
45	112	-457	-259	31
264	96	326	-196	31
196	64	455	-45	31
-177	308	318	-224	31
81	703	587	-140	31
68	657	432	-135	31
-50	250	-245	-116	31
-13	-202	-225	39	31
-269	-431	-132	104	31
-45	-280	-302	61	31
212	340	-51	-217	31
304	776	-405	31	31
-48	350	-509	300	31
-420	-465	-561	223	31
-331	-1129	-385	126	31
-185	-1356	501	157	31
98	-769	486	222	31
259	436	325	81	31
214	708	-21	-51	31
104	147	17	-84	31
79	-321	193	-32	31
74	-799	-39	-77	31
-56	-549	161	-112	31
-42	61	49	-97	31
-7	449	74	-63	31
-120	312	151	9	31
28	-312	232	62	31
87	-522	311	82	31
-4	-383	96	-2	31
54	22	117	-16	31
-115	277	380	45	31
-184	211	566	99	31
46	203	128	17	31
50	149	-566	-76	31
56	169	-1225	-86	31
164	165	-1722	12	31
106	182	-1127	170	31
49	309	-52	-167	31
-14	370	265	-402	31
4	310	189	-340	31
39	148	279	-285	31
18	-53	403	305	31
-82	-247	713	622	31
-142	-209	984	234	31
24	0	693	179	31
53	95	513	202	31
-3	51	457	40	31
-45	7	89	12	31
-125	2	-337	-196	31
34	17	-640	-166	31
238	23	-474	-29	31
178	-5	-259	-46	31
92	18	-185	-1	31
118	40	-62	-44	31
79	29	8	-19	31
-25	34	157	-46	31
-129	34	-12	-68	31
-134	21	-138	-34	31
-49	34	94	-13	31
-83	136	236	41	31
-85	224	218	36	31
1	213	229	-1	31
27	198	566	-10	31
-29	10	387	18	31
-57	-331	-134	14	31
133	-332	-444	45	31
94	-223	-673	27	31
-316	-377	-270	-154	31
-118	-385	-188	-177	31
175	-156	-355	183	31
59	100	-647	452	31
187	306	-969	263	31
28	438	-328	5	31
-172	577	170	-36	31
-112	568	410	-211	31
-72	328	431	-252	31
-66	28	116	124	31
-57	-638	-91	94	31
5	-925	-303	-221	31
41	-152	-376	-282	31
65	217	-458	-157	31
-155	-10	-402	341	31
-186	-420	590	390	31
41	-643	1671	-62	31
151	-73	1483	-1	31
48	579	653	-82	31
56	679	-269	-209	31
163	151	-478	37	31
141	-446	-473	122	31
92	-667	-383	76	31
-40	-443	-150	13	31
12	160	-362	-43	31
-74	748	-19	-57	31
-81	757	272	10	31
-19	300	359	34	31
-110	-233	257	59	31
-49	-799	82	59	31
-92	-598	10	-26	31
-29	79	-119	-11	31
166	223	103	-66	31
111	182	186	-104	31
9	111	230	-57	31
122	-42	189	28	31
106	36	98	37	31
93	484	185	-74	31
-9	865	90	-26	31
-190	587	-86	36	31
7	-127	-137	125	31
-62	-925	-266	218	31
-108	-1043	-375	174	31
-22	-368	-188	124	31
-154	-125	-78	140	31
149	-133	-34	12	31
302	-6	295	-258	31
-1	43	782	-203	31
-205	149	771	-58	31
-53	207	-145	-109	31
265	209	-1050	-84	31
176	171	-1576	-112	31
10	161	-1515	-86	31
-151	212	-761	89	31
-122	181	139	109	31
229	83	784	103	31
124	-51	669	103	31
-22	-145	21	24	31
6	-147	-153	-71	31
-202	-19	617	-103	31
-330	320	1326	44	31
-187	667	1221	252	31
15	685	506	170	31
76	468	70	-68	31
269	2	80	65	31
104	-641	-324	79	31
-224	-846	-506	-110	31
-39	-752	-533	-123	31
21	-404	-457	-201	31
92	72	-187	-96	31
92	264	-380	52	31
22	443	-418	24	31
152	348	-265	-37	31
49	44	133	-81	31
-167	-186	431	-93	31
-137	-60	475	48	31
22	-40	502	208	31
-136	-518	46	294	31
-205	-516	-304	273	31
22	-349	-24	1	31
55	-121	147	-107	31
-19	165	-69	-131	31
112	265	153	-303	31
75	448	124	-245	31
-47	310	-475	-117	31
141	105	-536	-87	31
183	66	-205	97	31
104	333	331	414	31
-59	890	130	329	31
-72	864	-314	-403	31
-3	242	-143	-284	31
-82	-322	-550	364	31
11	-749	-650	139	31
-70	-748	-31	-79	31
-114	-486	329	-88	31
-141	-636	26	-79	31
-133	-498	246	-101	31
159	-137	913	-71	31
158	-82	393	102	31
125	1	-74	122	31
63	75	119	189	31
-16	182	360	227	31
92	215	181	121	31
62	155	-136	145	31
54	144	-46	146	31
2	185	73	31	31
-37	245	55	-67	31
-37	200	39	-302	31
-65	116	125	-508	31
-80	-2	243	-437	31
-155	-142	166	-220	31
-97	-150	-9	108	31
68	32	-57	258	31
-26	197	-340	79	31
-51	209	-402	-23	31
72	92	-46	-141	31
-112	-19	183	-126	31
199	296	129	260	31
462	541	107	400	31
36	303	14	280	31
-118	-101	-270	72	31
-99	-459	-474	-65	31
-41	-471	-729	-84	31
-153	-490	-508	-125	31
-245	-446	9	-17	31
6	-141	304	2	31
-49	-14	353	-63	31
-139	-19	4	-181	31
3	68	-156	-147	31
0	285	215	283	31
64	466	959	318	31
129	456	921	-158	31
127	259	217	-71	31
127	-74	-16	140	31
24	-327	-435	112	31
31	-295	-362	191	31
151	-179	122	30	31
57	-64	372	-11	31
-32	-96	114	-32	31
-59	-191	-422	-49	31
-130	-52	-656	-15	31
-10	6	-602	-69	31
-61	-6	-129	-67	31
-187	47	-316	-79	31
-132	67	-386	39	31
-110	118	167	134	31
-49	264	753	108	31
78	502	1049	117	31
237	714	603	256	31
179	736	-67	124	31
88	259	-541	-3	31
74	-567	-818	121	31
21	-1117	-688	-160	31
9	-1053	-59	-255	31
13	-392	351	-237	31
52	58	523	-384	31
-7	87	534	-186	31
-111	230	406	-90	31
-67	493	314	-11	31
52	790	-57	69	31
-16	614	-611	36	31
-60	74	-1163	56	31
22	-594	-1220	88	31
-25	-1000	-479	159	31
37	-590	337	86	31
-4	-212	732	72	31
-51	20	1095	60	31
137	317	916	-166	31
119	401	131	-259	31
21	330	-394	-156	31
-60	145	-168	-149	31
24	-131	511	99	31
41	-345	484	316	31
-181	-62	119	209	31
-220	291	-225	227	31
-67	298	-235	69	31
53	237	-288	-76	31
-87	-108	-460	-107	31
-115	-368	-257	-37	31
-84	-142	-267	39	31
26	-200	-252	-73	31
82	-338	29	-214	31
9	-30	621	-267	31
138	139	399	25	31
99	68	-105	102	31
82	-35	-88	186	31
150	-39	-225	324	31
29	51	142	47	31
-49	99	113	58	31
17	112	-196	77	31
-47	134	-127	41	31
-107	187	-277	-7	31
-67	210	-270	-112	31
-19	159	-147	47	31
24	78	21	48	31
64	85	237	-11	31
19	57	307	-59	31
-124	2	315	-119	31
34	46	353	-100	31
72	269	249	-41	31
44	540	95	30	31
122	475	-176	62	31
41	144	-415	157	31
34	-402	-228	270	31
-16	-825	-196	186	31
19	-569	-56	182	31
46	162	193	171	31
24	762	59	-101	31
-103	553	-106	-138	31
-301	-164	-202	-305	31
-74	-640	-45	-342	31
61	-700	367	-122	31
35	-439	440	-104	31
64	-192	77	-41	31
9	-108	-332	-209	31
91	-145	-605	-167	31
162	-139	-111	-25	31
200	-209	521	-119	31
159	-223	443	20	31
-41	23	219	143	31
-161	134	86	239	31
-4	151	83	200	31
62	187	49	112	31
-83	271	62	139	31
-72	390	179	92	31
-102	614	169	82	31
-107	665	44	-44	31
11	-29	-120	-119	31
2	-540	-256	-70	31
-52	-593	-380	-35	31
-24	-437	-319	30	31
97	-45	-14	-6	31
175	-29	116	-85	31
72	36	39	-46	31
74	108	112	-11	31
49	82	213	-26	31
-47	167	328	10	31
45	108	282	10	31
-21	72	85	31	31
-76	6	-115	89	31
-30	-25	-372	109	31
-64	-2	-250	76	31
-132	-70	10	59	31
-189	-139	29	77	31
-30	69	144	44	31
35	380	46	68	31
-77	510	-427	82	31
-32	466	-515	52	31
32	245	-484	17	31
124	50	-361	-137	31
106	-90	174	-147	31
-47	46	189	-23	31
-29	215	-195	-42	31
-101	-84	-461	-6	31
-67	-593	-503	27	31
66	-716	-320	-35	31
-23	-363	54	-30	31
31	-124	914	-76	31
57	-39	1440	-131	31
7	-14	1019	-137	31
-49	-29	-97	-79	31
-26	52	-684	159	31
22	223	-92	504	31
-31	358	312	595	31
82	253	244	419	31
94	69	241	126	31
31	-164	127	-317	31
105	-328	-107	-508	31
152	-167	-141	-483	31
71	-1	-48	-360	31
-17	123	-169	-111	31
-6	333	-304	35	31
-12	265	-286	187	31
-84	-5	37	16	31
-132	-241	169	-124	31
-149	-360	-412	134	31
-64	-129	-432	251	31
45	19	11	152	31
-147	-21	88	-12	31
-244	31	104	22	31
44	14	49	-67	31
186	22	109	-160	31
90	77	486	-104	31
59	205	499	-74	31
76	255	-34	25	31
99	162	-117	-20	31
111	-15	-310	-30	31
-31	-303	-327	-12	31
-61	-155	45	-43	31
88	249	-138	-6	31
-176	482	90	60	31
-245	402	518	103	31
48	-144	423	109	31
-42	-325	16	184	31
-45	12	-415	197	31
-31	34	-633	191	31
13	-215	-443	126	31
59	-257	-158	-139	31
16	-32	-94	-211	31
107	81	-47	-139	31
119	-131	-138	-121	31
97	-375	-28	-74	31
-26	-470	129	-36	31
44	-288	161	63	31
180	68	274	228	31
61	298	291	257	31
-33	323	196	113	31
-95	278	156	40	31
-137	407	137	-74	31
-80	730	27	-160	31
4	852	71	-213	31
36	270	205	-256	31
2	-644	200	70	31
-59	-1291	141	181	31
7	-1185	142	7	31
36	-416	32	18	31
104	5	-97	-5	31
219	273	-125	-34	31
79	307	-145	-38	31
49	58	-34	34	31
7	165	101	114	31
-109	170	119	119	31
-112	72	14	23	31
-82	-8	-68	-156	31
-52	-147	-109	-63	31
-84	-182	-237	51	31
-84	36	-244	-31	31
-106	209	-179	-42	31
30	142	-50	-64	31
125	167	200	-5	31
97	172	250	90	31
94	299	259	74	31
46	585	-41	44	31
49	678	-618	-50	31
45	345	-779	-54	31
77	-364	-471	-6	31
69	-908	284	9	31
-37	-822	1099	-20	31
-103	-378	1193	-94	31
-35	-100	729	-58	31
42	43	166	-12	31
-100	47	-556	-24	31
-264	58	-661	-117	31
-155	103	-360	-149	31
45	177	-147	29	31
77	401	288	212	31
38	458	170	297	31
24	310	-264	293	31
18	-85	-358	196	31
14	-552	-338	44	31
41	-448	17	-53	31
94	-22	69	-167	31
113	60	-698	-178	31
-16	25	-1138	-37	31
-74	38	-200	60	31
-37	2	753	234	31
-49	15	773	236	31
-37	21	631	149	31
-69	79	259	131	31
-36	180	3	-12	31
-19	197	-188	-228	31
-34	95	-227	-340	31
17	-114	214	-150	31
98	-224	418	-73	31
104	-119	33	-127	31
72	-16	-349	-229	31
48	22	-361	-242	31
67	38	-215	73	31
52	21	71	148	31
-68	39	220	-74	31
-28	69	223	-174	31
-54	139	89	159	31
-88	147	-61	384	31
-59	67	86	131	31
-21	-30	269	45	31
32	-132	225	34	31
-16	-155	96	1	31
-61	-52	32	33	31
-54	109	-200	-16	31
-6	150	-375	-19	31
-100	273	-250	-53	31
-50	426	27	-84	31
62	269	137	-51	31
20	-87	102	-17	31
67	-511	105	44	31
92	-704	21	25	31
41	-414	3	8	31
14	-33	-42	204	31
47	85	-250	251	31
53	132	-360	48	31
39	78	-120	-42	31
-26	-46	67	-140	31
-89	-137	57	-102	31
-45	-162	-25	161	31
29	-32	-65	106	31
207	-24	54	-70	31
376	-21	132	-61	31
143	-9	244	-66	31
-78	-24	269	-41	31
-10	136	324	-5	31
10	278	229	51	31
41	322	-99	86	31
19	198	-214	89	31
9	9	-162	84	31
-30	-83	-19	27	31
-124	-97	24	-16	31
-69	114	19	-77	31
24	368	59	-114	31
-52	329	183	-144	31
-112	99	585	-167	31
-93	-216	706	-93	31
-130	-268	281	54	31
-36	66	-195	129	31
-24	228	-363	73	31
4	227	-346	15	31
104	-35	-498	-8	31
99	-247	-596	28	31
67	-141	-456	4	31
1	-159	-141	-44	31
47	-113	51	-15	31
37	-99	-106	-25	31
-85	-87	-141	-34	31
-167	-44	-136	47	31
-93	-207	-23	82	31
-64	-456	174	-16	31
-119	-430	66	-47	31
-66	-41	-44	-91	31
-35	219	-148	-99	31
-72	317	-82	-48	31
-132	249	242	-2	31
41	88	194	49	31
129	-77	-69	-9	31
29	-175	-229	-10	31
29	-41	-265	29	31
105	70	36	36	31
133	138	341	274	31
0	124	470	399	31
95	99	548	44	31
141	114	453	-226	31
-32	-105	209	-190	31
-25	-205	11	-16	31
-33	36	-418	219	31
20	178	-1017	163	31
86	148	-573	-19	31
-142	95	655	41	31
-199	129	929	109	31
43	246	528	36	31
81	245	127	-92	31
155	24	111	-249	31
361	-329	620	-175	31
117	-452	803	-100	31
-74	-238	546	-121	31
50	-91	-53	39	31
12	-134	-745	53	31
-49	-107	-1162	-20	31
-71	-32	-910	-55	31
-54	-11	-516	7	31
-110	33	-317	27	31
-153	92	-74	-34	31
-67	164	-82	42	31
-37	214	58	63	31
-31	204	79	92	31
-25	172	-19	78	31
-1	131	26	9	31
14	111	262	-109	31
58	81	662	-182	31
110	49	546	-141	31
105	27	73	-49	31
129	-22	-596	222	31
69	-41	-1022	437	31
-45	-35	-811	560	31
-51	-22	-513	473	31
-64	-26	-4	-7	31
-145	-27	338	-327	31
-119	-14	245	-239	31
-59	-8	415	-189	31
-90	4	583	-166	31
25	-18	360	-121	31
121	-16	-79	-81	31
-37	125	-170	-67	31
-102	368	129	-284	31
10	498	292	-231	31
16	282	311	-42	31
69	-297	297	-94	31
99	-711	202	-41	31
19	-638	2	89	31
72	-367	-98	204	31
52	-56	-119	156	31
85	35	-247	29	31
-9	180	-409	32	31
-216	642	-305	80	31
-86	854	-74	169	31
-55	601	189	235	31
-78	-59	470	139	31
-14	-932	333	-39	31
-43	-1168	270	-144	31
59	-621	437	-181	31
84	-227	-24	-137	31
17	11	-460	-34	31
117	269	-185	72	31
210	453	-242	134	31
88	509	-57	161	31
44	268	157	161	31
36	-142	-175	95	31
-70	-599	-83	2	31
-81	-515	-112	-20	31
-154	-80	22	63	31
-54	71	209	86	31
58	162	185	-26	31
8	242	85	-62	31
-112	380	140	-47	31
-116	325	585	9	31
-1	59	237	34	31
-14	-154	-321	-127	31
92	-285	-997	-244	31
97	-67	-1799	-191	31
158	140	-1072	87	31
244	293	161	39	31
62	413	805	-309	31
-122	225	970	-39	31
-80	-8	698	-7	31
-1	-289	551	-91	31
-160	-429	142	-65	31
-147	-325	-375	-77	31
-118	-167	-451	371	31
-94	-120	-136	202	31
-28	-119	32	-66	31
-87	-15	-20	-28	31
-4	47	227	-75	31
41	160	328	16	31
26	222	230	119	31
103	214	193	156	31
146	202	313	117	31
41	169	217	82	31
36	199	34	-36	31
57	172	-237	-93	31
4	118	-416	-12	31
21	76	-279	70	31
-22	54	-315	71	31
-46	40	-105	54	31
-62	-6	185	44	31
-115	-14	534	4	31
-69	-25	613	-106	31
45	-51	326	-288	31
-78	-32	198	-282	31
-89	52	170	-22	31
138	152	133	332	31
113	229	-65	493	31
34	140	-429	410	31
79	-174	-904	290	31
187	-170	-980	49	31
139	124	-783	-78	31
-9	117	-365	24	31
-30	-114	-142	-131	31
69	-340	179	-258	31
27	-546	483	-106	31
-187	-556	-267	96	31
-116	-154	-217	41	31
14	237	464	-176	31
-99	400	870	-221	31
-121	397	1183	-281	31
-18	26	698	-389	31
49	-209	160	-304	31
66	-327	-189	-61	31
66	-495	-488	190	31
61	-325	-779	255	31
-11	-149	-854	-27	31
100	41	-658	-260	31
176	367	-146	-245	31
32	546	769	91	31
27	563	825	402	31
4	516	114	102	31
-57	367	-36	-69	31
-99	220	129	297	31
-119	59	-91	531	31
-15	-573	76	320	31
24	-723	135	127	31
-44	-415	93	7	31
-27	-520	417	-121	31
42	-337	59	-41	31
83	-126	-656	-94	31
83	102	-1064	-131	31
9	202	-460	-54	31
29	69	376	-76	31
42	15	1287	-151	31
37	-35	1326	-156	31
14	107	-163	81	31
-85	121	-730	187	31
-74	221	-819	24	31
-77	332	-456	-232	31
-152	280	-180	-295	31
-143	195	-105	-14	31
-4	-64	229	-78	31
-4	-230	-185	-73	31
-26	-197	-53	223	31
71	39	290	272	31
99	204	364	228	31
176	85	319	114	31
89	-209	-119	-47	31
41	-287	-94	-295	31
99	-19	185	-307	31
26	82	257	-264	31
37	102	504	-246	31
76	126	6	-172	31
46	51	-493	-101	31
6	34	-378	298	31
-12	43	-823	518	31
-82	62	-621	469	31
-111	58	-540	416	31
-114	7	43	104	31
-107	-22	1065	-151	31
-76	-7	704	-261	31
-74	-4	779	-245	31
22	18	569	42	31
72	102	-39	320	31
20	234	-146	352	31
-30	360	-252	5	31
-47	375	-497	-362	31
-30	234	-533	-276	31
-29	-95	-101	-102	31
-3	-389	109	-132	31
2	-431	226	-35	31
-47	-335	147	-2	31
1	-147	27	-129	31
29	94	-21	-106	31
-27	101	262	21	31
-19	-99	839	96	31
26	-306	934	61	31
37	-269	482	44	31
29	-41	-741	74	31
70	11	-1973	192	31
69	11	-2312	310	31
50	40	-936	280	31
56	209	1264	81	31
-47	486	2075	-26	31
-50	591	1280	-3	31
41	392	-553	22	31
-66	-145	-1332	171	31
-114	-644	-498	82	31
-82	-675	132	-146	31
-22	-318	297	-314	31
34	-81	257	-456	31
-145	69	566	-239	31
-147	169	656	-167	31
6	55	-327	-307	31
110	38	-1189	-92	31
280	139	-1414	164	31
219	163	-116	268	31
112	56	2268	139	31
117	-37	3087	-22	31
100	-138	1848	-101	31
124	-170	160	-77	31
97	7	-1381	264	31
25	67	-1523	570	31
-40	55	-1055	444	31
-127	42	-1066	-16	31
-131	-15	-751	-95	31
-80	-10	-450	-106	31
-90	109	180	-39	31
-108	442	-294	228	31
-115	623	-392	33	31
-96	466	84	104	31
-29	390	-96	110	31
95	293	-493	31	31
173	6	-981	-89	31
117	-214	431	-300	31
49	-570	1656	-101	31
-4	-1126	1373	-111	31
-81	-1042	1158	-201	31
-115	-360	1636	-291	31
-88	35	2032	-411	31
-48	65	836	-245	31
66	-19	-510	248	31
77	-30	-1666	464	31
-27	-14	-2304	360	31
38	57	-2359	303	31
69	290	-1730	202	31
31	474	563	36	31
66	465	1622	-405	31
137	197	777	-602	31
228	-142	-262	-485	31
151	-288	-940	-611	31
-13	-159	-691	-665	31
-80	-12	33	-252	31
-6	-4	129	551	31
41	89	530	1006	31
-10	165	1450	821	31
34	175	1739	556	31
9	179	431	274	31
-116	170	-2054	227	31
-141	108	-2364	133	31
-156	-42	-590	-320	31
-219	-90	315	-388	31
-146	-85	464	-631	31
-74	-70	820	-836	31
-162	-14	462	-156	31
-75	15	368	301	31
117	52	710	553	31
151	89	1185	634	31
134	87	771	-6	31
103	20	-537	-250	31
95	-10	-1344	-309	31
64	-16	-2393	-234	31
-34	-56	-1401	262	31
-52	-5	914	306	31
-74	72	1854	43	31
-166	86	1381	-216	31
-137	66	-257	-548	31
-112	-76	-579	-648	31
-167	-338	505	-416	31
-146	-267	816	117	31
-92	145	238	876	31
-7	420	-84	1109	31
16	345	-240	445	31
-94	-55	-1094	149	31
-36	-330	-1581	612	31
49	-383	-125	532	31
-1	-177	1436	369	31
-33	19	1197	-582	31
-40	-40	-37	-1396	31
48	43	-367	-741	31
157	63	45	280	31
86	71	-343	715	31
122	120	-746	-212	31
409	57	-1317	-7	31
329	15	-130	-104	31
87	24	412	-612	31
49	34	-141	-301	31
34	-30	490	-589	31
13	9	154	94	31
-140	2	157	318	31
-212	-152	-77	495	31
-204	-244	254	23	31
-111	-135	615	-1146	31
0	-9	-20	-729	31
54	23	-139	96	31
289	269	-39	1480	31
249	358	164	1519	31
-8	147	587	776	31
-33	-47	1418	493	31
-46	-156	1419	-885	31
-184	-145	44	-623	31
-210	58	-2301	1076	31
-17	353	-2561	324	31
60	348	-952	-1155	31
172	179	-59	-1558	31
301	-95	936	-992	31
153	-437	422	250	31
185	-435	-734	924	31
129	-116	-567	1250	31
-114	36	902	1289	31
-209	35	1748	781	31
-362	76	1242	-27	31
-420	62	607	-612	31
-422	72	-1119	-1104	31
-122	44	-1532	-864	31
290	38	-484	-361	31
270	52	247	711	31
75	81	446	435	31
-67	101	207	-840	31
42	-15	232	-186	31
59	-60	238	-243	31
-19	-103	-25	-384	31
15	-145	91	-520	31
-6	-119	551	-444	31
112	-96	102	-246	31
48	-56	-12	62	31
-139	2	647	1351	31
59	44	156	1146	31
223	12	-954	-127	31
-31	17	-1220	116	31
-91	62	-150	182	31
38	107	592	-355	31
-64	61	412	-297	31
-131	-165	71	-698	31
-168	-276	-580	-697	31
-108	-272	574	-582	31
-36	-282	1089	81	31
-61	-51	-194	1023	31
-12	278	-446	1597	31
56	363	-452	1874	31
77	297	-922	330	31
85	204	-1349	-1783	31
82	121	-308	-1702	31
82	3	632	-472	31
377	-19	66	99	31
473	111	-1	402	31
107	120	-344	312	31
-152	78	-397	46	31
-302	38	447	-66	31
-152	16	459	58	31
41	0	371	-146	31
-20	-53	728	-2	31
24	-57	1263	-201	31
7	-67	1350	-35	31
6	-11	42	660	31
29	17	-1242	209	31
-122	-15	-969	-7	31
-150	-36	338	-490	31
-15	-74	897	-538	31
182	-59	39	-171	31
248	-33	-899	598	31
194	-6	-1353	840	31
200	-19	-733	53	31
55	-59	-496	286	31
-68	-69	-530	10	31
-73	-49	804	-459	31
-125	-25	1126	11	31
-86	-26	660	51	31
-42	-17	424	107	31
-140	-20	592	323	31
-330	10	338	262	31
-262	26	-193	200	31
-89	19	33	-324	31
-117	64	887	-612	31
-75	87	891	-103	31
-64	72	-1600	-439	31
79	49	-2098	-709	31
270	23	-730	-313	31
216	3	-299	-606	31
52	0	227	-150	31
-31	-43	1092	1	31
131	-118	412	-71	31
119	-99	-808	1116	31
35	-22	-661	1094	31
-22	1	-427	76	31
-147	34	116	-48	31
-94	52	457	-98	31
-52	12	1183	-623	31
17	-26	1193	-189	31
7	-52	568	828	31
-68	-25	779	927	31
-16	17	268	589	31
54	70	-347	-128	31
82	87	-527	-463	31
35	7	-457	-194	31
8	-21	49	-310	31
-106	9	133	168	31
-144	16	-956	638	31
-99	25	-1323	81	31
-217	21	-853	-450	31
-220	15	-1087	-443	31
-34	7	-854	-447	31
80	16	510	-599	31
128	31	2145	-396	31
206	15	1977	-372	31
245	44	600	-86	31
214	81	-612	27	31
121	90	-1011	-183	31
155	148	114	435	31
96	296	699	596	31
-110	418	613	516	31
-76	398	673	394	31
23	-143	377	102	31
-31	-962	-256	280	31
-225	-847	-1271	219	31
-248	-216	-1246	-342	31
-119	25	-630	-776	31
-3	53	-533	-640	31
112	-11	-104	-435	31
109	14	-89	173	31
71	12	-107	805	31
-142	16	180	467	31
-157	72	716	109	31
4	45	1436	-46	31
-36	23	1207	-397	31
30	41	109	-240	31
69	110	-778	284	31
141	112	-811	302	31
205	69	-762	211	31
197	52	-1315	510	31
187	60	-603	362	31
87	121	1272	537	31
2	262	1107	405	31
-66	283	532	-570	31
-61	97	314	-259	31
-101	-84	-214	-502	31
-122	-300	-202	-325	31
38	-239	-32	47	31
139	-16	5	-695	31
44	-40	-15	-225	31
-8	47	48	-360	31
109	212	-257	2	31
104	225	-503	558	31
-13	106	-82	90	31
-51	-100	673	-52	31
-91	-313	571	-116	31
-109	-358	178	-86	31
-121	-142	31	-290	31
-184	-4	438	-99	31
-171	44	891	355	31
-44	91	-233	467	31
87	17	-640	382	31
105	17	508	407	31
0	21	985	141	31
-12	2	-147	26	31
58	36	-1554	161	31
99	22	-1801	-134	31
137	47	-949	-382	31
127	46	659	-598	31
91	34	1054	-123	31
19	94	-277	172	31
5	81	-1277	-52	31
2	12	-1138	-62	31
-141	-16	-264	-173	31
-56	-35	1028	-27	31
37	-23	1322	-1	31
-64	-4	781	12	31
41	-19	723	-88	31
-42	9	129	-106	31
-119	47	-521	122	31
-5	29	-413	125	31
-7	-7	-106	257	31
103	-12	-162	335	31
121	2	-237	-30	31
21	-4	-131	-99	31
11	23	-17	67	31
92	212	-142	149	31
146	529	-136	268	31
29	621	1051	-115	31
-127	398	1251	-394	31
-122	-57	321	-211	31
-79	-634	-139	49	31
-110	-904	-455	126	31
-213	-643	-603	80	31
-211	-169	-691	-21	31
11	-9	-511	-109	31
64	15	-665	-83	31
22	87	-797	60	31
72	41	64	136	31
54	-32	1044	-25	31
3	-112	1735	-11	31
179	-59	1656	-2	31
215	20	-237	195	31
-11	57	-2358	464	31
53	61	-1650	477	31
-59	32	382	218	31
-169	67	546	-508	31
-26	57	542	-704	31
-11	73	849	-265	31
52	58	603	-67	31
39	49	27	-183	31
-37	77	-580	-194	31
-100	56	-502	37	31
-27	51	-249	116	31
66	42	-20	97	31
76	21	300	62	31
181	-11	714	36	31
61	-2	218	84	31
-26	27	-629	51	31
132	51	-703	9	31
62	32	-385	13	31
-27	-8	-6	93	31
-42	17	-36	141	31
