File Name: not saved
Channel 1: 'EMG 1', 21069 values, raw ADC, no filters.
Channel 2: 'EMG 2', 21069 values, raw ADC, no filters.
Channel 3: 'EMG 3', 21069 values, raw ADC, no filters.
Channel 4: 'EMG 4', 21069 values, raw ADC, no filters.
Digitals combined (event=16, d=8, c=4, b=2, a=1): 21069 values, .

-15	-7	-54	-24	31
-88	-22	-131	-74	31
-27	-21	-64	2	31
-32	42	23	18	31
-89	34	142	13	31
-123	52	295	-18	31
-31	87	272	-13	31
-11	54	9	-3	31
22	-5	-195	63	31
157	-94	-209	137	31
87	-132	-126	-53	31
-31	-9	88	-221	31
-64	197	249	-187	31
-34	295	16	-14	31
-17	271	-267	54	31
-21	162	-317	9	31
-19	-156	-242	4	31
-142	-350	-173	32	31
-159	-347	-240	35	31
-77	-337	-240	29	31
-39	27	-234	71	31
-32	207	-130	74	31
-14	26	126	29	31
87	-155	296	-161	31
126	-401	399	-171	31
37	-289	253	37	31
-7	-35	116	42	31
57	39	154	26	31
112	68	227	32	31
54	59	242	-15	31
-63	57	97	-17	31
-46	49	91	-16	31
-12	49	73	13	31
-54	59	-70	57	31
-29	81	-191	73	31
-10	106	-373	77	31
22	172	-197	66	31
79	300	252	51	31
31	395	232	84	31
-13	295	47	197	31
42	-128	172	287	31
18	-516	183	102	31
42	-389	6	-265	31
151	32	-102	-316	31
92	199	-302	-192	31
82	88	-262	-223	31
15	-51	-6	-172	31
-123	-178	129	21	31
-187	-124	101	162	31
-156	69	-172	142	31
-12	52	-267	65	31
-17	5	-299	27	31
-25	-26	-291	12	31
-66	-101	-108	-7	31
-71	-24	-24	15	31
57	20	135	96	31
77	44	393	126	31
76	233	358	75	31
69	430	99	46	31
-51	357	12	65	31
12	67	-11	11	31
116	-293	-90	-117	31
-74	-572	-117	-138	31
100	-374	-98	-115	31
182	-47	-46	-134	31
-57	34	48	-24	31
-69	57	95	83	31
-92	-27	111	58	31
-29	-37	202	19	31
-3	46	163	2	31
8	55	54	27	31
-39	62	126	23	31
-21	61	187	7	31
119	104	123	4	31
116	146	34	-12	31
174	214	-60	-43	31
116	283	-124	-26	31
21	174	-88	18	31
6	-50	3	-9	31
-31	-281	81	14	31
27	-282	186	40	31
-37	-61	350	0	31
-48	39	-5	101	31
-32	272	-699	187	31
-96	525	-678	27	31
-37	373	-437	-8	31
-57	46	-391	123	31
-26	-546	-71	109	31
33	-835	77	129	31
-50	-308	15	163	31
-94	80	26	45	31
39	177	29	-287	31
147	170	63	-580	31
110	-44	243	-310	31
117	-207	480	22	31
40	-184	449	41	31
0	-14	410	153	31
-68	49	337	107	31
-225	45	142	75	31
-52	28	0	102	31
17	24	-29	-19	31
-127	34	53	-107	31
-94	29	111	-94	31
-26	73	138	9	31
-6	55	121	-74	31
-19	96	-32	-71	31
111	211	-399	22	31
79	305	-754	203	31
-84	287	-1071	294	31
12	170	-816	117	31
24	-34	-117	81	31
57	-294	232	75	31
86	-335	446	52	31
-56	-278	404	-41	31
-27	-148	409	-159	31
-137	-26	386	-217	31
-164	-91	186	-299	31
-33	-96	-56	-129	31
-152	-4	-648	141	31
-114	111	-754	171	31
55	114	-237	183	31
155	26	214	113	31
34	31	643	21	31
-41	45	813	-21	31
166	55	483	9	31
205	61	250	76	31
51	47	69	18	31
-32	49	-148	-6	31
51	74	-86	-117	31
99	113	-128	-115	31
-22	252	-80	-26	31
-69	440	9	-96	31
-46	356	76	-76	31
-86	-14	61	-17	31
-44	-404	-128	-2	31
-53	-489	-39	16	31
-141	-314	229	28	31
-33	-248	292	52	31
91	-139	115	56	31
76	21	39	34	31
68	6	-271	46	31
34	16	-588	86	31
18	24	-585	116	31
93	6	-468	97	31
38	32	-10	36	31
4	14	221	26	31
95	2	119	14	31
-19	-12	13	-24	31
-106	4	81	-54	31
-30	3	175	-66	31
-29	3	-9	-69	31
12	64	-50	-131	31
-47	133	15	-79	31
-76	313	37	55	31
-4	506	34	46	31
32	465	98	38	31
151	94	141	92	31
34	-401	105	112	31
75	-501	193	114	31
208	-200	295	121	31
42	-4	278	115	31
14	-41	98	14	31
21	-150	-33	-172	31
47	-44	-180	-169	31
23	153	-488	-85	31
-117	18	-796	-284	31
-108	-278	-690	-214	31
-62	-303	-330	-33	31
-30	-8	2	-37	31
-126	225	420	64	31
-111	243	501	24	31
76	78	387	77	31
16	-84	378	99	31
46	44	344	19	31
-6	96	319	17	31
-14	-69	333	11	31
159	-180	37	107	31
47	-122	-193	169	31
76	43	94	134	31
31	-26	15	77	31
-275	-86	-387	55	31
-117	47	-441	-9	31
-22	395	-458	-16	31
-120	666	-407	109	31
-32	398	-177	127	31
-51	-209	128	-36	31
-42	-805	394	-147	31
-33	-594	202	-122	31
59	-88	106	-74	31
91	-54	83	-6	31
22	24	-56	36	31
61	44	-8	39	31
159	85	-36	-12	31
138	148	85	-21	31
18	120	261	9	31
37	100	346	40	31
-43	-15	275	16	31
-26	-52	89	-137	31
74	-12	-46	-83	31
-74	50	-309	39	31
-187	59	-524	-35	31
-145	54	-433	-12	31
-21	71	-133	-4	31
167	46	16	-23	31
43	65	-150	-4	31
-71	52	-125	20	31
51	35	66	146	31
58	67	141	209	31
189	145	432	77	31
95	151	299	-161	31
-3	25	-67	-209	31
24	-141	-42	-117	31
-26	-295	-60	-77	31
22	-167	26	-54	31
-91	46	101	-112	31
-84	62	135	-87	31
-66	70	156	-19	31
-114	48	149	-13	31
-32	56	264	112	31
24	122	247	184	31
32	91	60	96	31
-61	4	-71	100	31
-92	-102	-161	76	31
1	-103	-253	14	31
29	20	-169	32	31
14	187	17	7	31
47	295	2	27	31
56	129	-377	-19	31
22	-42	-495	-26	31
-11	-41	-173	93	31
-25	82	59	131	31
-55	51	142	134	31
-44	-515	162	156	31
-23	-692	343	121	31
-45	-223	520	-77	31
-2	53	378	-329	31
-17	282	-102	-351	31
17	455	-643	-189	31
42	398	-766	-116	31
29	149	-233	-23	31
66	-327	498	54	31
-61	-641	560	92	31
62	-477	377	141	31
277	-101	127	124	31
150	22	-192	158	31
129	47	-215	163	31
52	101	-249	45	31
-80	109	-297	31	31
-62	189	-375	36	31
-69	252	-271	-59	31
-15	278	-64	-3	31
-44	198	260	-1	31
-126	-105	395	-23	31
-176	-361	430	-31	31
-7	-94	616	-29	31
125	259	324	47	31
-67	211	-33	-8	31
-41	131	-382	-41	31
82	-7	-472	-14	31
94	-158	-69	13	31
104	-181	148	-24	31
21	-125	76	-47	31
2	-9	-9	-11	31
66	-27	-131	63	31
-61	-40	-175	117	31
-91	22	-41	-47	31
-64	31	14	-204	31
-169	56	110	-27	31
-167	110	-2	189	31
-124	137	-214	56	31
54	87	-168	-29	31
67	-13	-132	22	31
-17	-81	8	18	31
187	-41	200	-66	31
129	31	222	-135	31
39	13	220	-5	31
265	-2	252	68	31
134	15	153	39	31
62	22	25	57	31
146	18	-178	102	31
-35	4	-318	86	31
-61	-5	-163	-22	31
-136	1	-96	-31	31
-102	2	-6	20	31
32	-31	99	-47	31
-7	14	68	-22	31
-82	250	-39	-18	31
-164	481	-108	-79	31
29	380	51	-29	31
155	27	156	-30	31
49	-458	151	-6	31
4	-619	-34	-8	31
116	-76	-331	-57	31
113	218	-382	-113	31
-106	16	-174	-38	31
-42	-237	247	102	31
17	-307	578	40	31
-154	-31	576	38	31
-120	46	531	133	31
29	31	529	148	31
-22	3	424	140	31
-81	-201	102	126	31
-51	-201	-479	103	31
-69	-17	-822	-16	31
-42	73	-808	-198	31
-23	84	-608	-165	31
90	98	-304	-1	31
135	175	-336	-111	31
32	391	-469	-183	31
85	477	-251	-65	31
61	244	12	-46	31
-83	-174	305	39	31
-82	-429	545	98	31
-17	-311	542	55	31
-25	-195	475	40	31
-9	-150	322	64	31
-7	-170	196	79	31
-39	-102	191	101	31
-46	196	76	129	31
-94	237	-202	92	31
-1	172	-412	52	31
5	121	-387	57	31
-30	-6	-206	94	31
71	-42	4	-9	31
0	-6	188	-280	31
71	54	289	-315	31
92	53	147	-69	31
60	54	179	31	31
22	55	390	30	31
-79	42	61	-13	31
-62	38	-303	-62	31
-175	1	-241	4	31
-33	-16	-56	55	31
-12	6	109	111	31
-89	57	331	142	31
33	57	447	119	31
33	9	159	69	31
94	-55	-134	11	31
77	-84	-164	3	31
37	-20	-64	-14	31
62	49	0	-32	31
117	196	-47	-44	31
161	313	9	-53	31
124	221	-57	22	31
-5	55	-170	56	31
-71	-242	-134	-110	31
-18	-312	-141	-197	31
54	69	-134	-16	31
-10	187	-104	57	31
-72	11	-22	18	31
49	-184	-52	18	31
-34	-258	-84	26	31
-67	-139	9	117	31
31	-287	107	69	31
-78	-365	116	-8	31
-35	-96	44	67	31
152	22	304	102	31
208	26	335	90	31
204	61	-97	81	31
6	83	-318	40	31
-21	91	-390	-13	31
10	81	-482	-71	31
-82	51	-432	-228	31
18	51	-38	-257	31
-29	57	259	-85	31
-95	51	259	-55	31
-80	107	309	67	31
-6	205	361	137	31
-34	228	165	16	31
-186	85	-94	38	31
-61	-232	-34	21	31
35	-396	69	49	31
-12	-107	218	116	31
-2	196	354	67	31
-11	297	215	21	31
48	282	47	-51	31
78	107	-134	-161	31
31	-167	-159	-173	31
-41	-420	121	-8	31
-70	-133	306	101	31
8	357	165	59	31
-77	271	-52	34	31
-61	-67	-357	31	31
14	-353	-832	62	31
-81	-342	-956	101	31
37	-101	-435	52	31
134	117	28	-3	31
-25	300	121	-46	31
-115	222	410	-137	31
-16	4	307	-61	31
94	-215	29	112	31
73	-237	343	20	31
52	-62	339	26	31
129	6	183	104	31
-30	71	230	-62	31
-85	142	80	-154	31
54	245	-79	-102	31
-43	222	-224	53	31
-72	2	-154	145	31
-31	-177	91	8	31
77	-167	174	50	31
105	14	241	162	31
-74	4	169	-87	31
-120	-3	-48	-198	31
-14	98	-260	-138	31
27	124	-355	-91	31
5	174	-92	69	31
72	108	56	198	31
38	-20	185	134	31
-1	-107	471	-29	31
41	-40	368	-40	31
55	74	66	-73	31
-6	-38	-161	2	31
-2	-220	-250	59	31
92	-289	-272	-3	31
-159	-142	-178	38	31
-82	-29	37	29	31
-81	-24	-104	21	31
-274	68	-383	9	31
17	249	-426	30	31
-36	576	-262	55	31
79	613	34	-57	31
137	233	316	-121	31
61	-370	480	-60	31
204	-897	210	46	31
46	-634	-53	109	31
92	-132	-190	28	31
62	1	-500	-104	31
-74	42	-229	-56	31
-69	52	471	17	31
-66	69	731	28	31
33	134	455	84	31
-58	326	225	-1	31
-93	450	139	7	31
-1	307	-27	19	31
-43	-78	-255	-8	31
-32	-547	-437	95	31
71	-495	-330	18	31
-19	-102	-204	-101	31
-136	133	86	-85	31
55	283	292	-52	31
166	160	175	-35	31
77	-62	14	14	31
-62	-214	-372	17	31
-2	-151	-453	-51	31
24	20	-37	-109	31
-52	17	303	-52	31
-7	83	466	32	31
-126	227	336	26	31
-85	440	60	94	31
34	426	-221	143	31
35	97	-490	125	31
-27	-322	-467	44	31
-126	-543	-101	-11	31
71	-212	338	32	31
59	2	288	28	31
-41	1	7	109	31
-13	137	-105	219	31
16	133	-73	147	31
199	128	-44	35	31
100	81	-61	-125	31
79	-45	147	-285	31
78	-94	300	-107	31
3	-101	210	11	31
55	-34	95	-39	31
-37	17	-1	-26	31
-72	39	-150	-81	31
-71	104	-237	-58	31
-22	234	-111	-69	31
12	392	127	-4	31
72	367	228	112	31
-17	104	107	61	31
-46	-260	-9	90	31
171	-493	24	186	31
79	-308	214	155	31
37	-56	266	-94	31
56	-8	-3	-184	31
35	-43	-233	37	31
-28	-137	-410	83	31
-92	-57	-408	57	31
83	145	-247	45	31
-50	230	-354	22	31
-219	176	-297	104	31
-153	-22	-43	37	31
-164	-321	166	-20	31
1	-281	413	22	31
-51	2	436	39	31
-83	29	238	17	31
119	14	142	-94	31
118	14	150	-142	31
197	19	89	-1	31
63	46	-2	81	31
16	49	-69	18	31
84	76	-97	19	31
-21	55	-86	-77	31
35	55	-84	-245	31
5	64	3	-295	31
37	139	109	-34	31
-58	508	100	99	31
-106	910	21	26	31
-15	712	-197	63	31
-114	-18	-184	-1	31
-16	-799	184	26	31
83	-1024	362	27	31
108	-514	278	29	31
61	-287	241	39	31
129	-397	87	45	31
228	-259	-305	38	31
-15	-122	-438	-54	31
-12	-26	-297	-32	31
124	66	-88	12	31
-82	100	177	29	31
-72	46	198	44	31
38	26	255	61	31
-126	169	142	-1	31
-108	268	-245	93	31
-57	263	-200	248	31
-83	129	-7	11	31
-88	-91	-27	-116	31
-56	-178	-82	-21	31
-89	-26	-294	31	31
-72	134	-486	25	31
53	124	-260	-107	31
-124	117	185	-150	31
-2	169	365	-56	31
162	291	269	108	31
25	278	75	208	31
52	74	-102	192	31
-4	-206	-268	185	31
-74	-406	-468	139	31
-46	-212	-353	-101	31
13	62	-129	-476	31
-21	214	124	-450	31
-102	265	481	-117	31
-112	87	540	-24	31
25	-197	357	51	31
39	-385	291	69	31
25	-189	279	51	31
57	11	140	81	31
29	2	-1	62	31
190	52	-62	64	31
140	74	-11	22	31
143	119	190	16	31
96	110	335	20	31
-112	60	161	81	31
-59	22	-56	151	31
-41	6	-237	148	31
-38	27	-541	164	31
-56	6	-501	106	31
-61	7	-247	-39	31
-69	-11	-22	-190	31
-94	-11	202	-310	31
-34	46	190	-223	31
-94	84	28	55	31
-86	102	-175	146	31
162	139	-257	46	31
270	136	-261	25	31
163	-28	-150	6	31
76	-140	172	-7	31
28	-182	233	89	31
-12	-233	150	141	31
-77	-172	349	56	31
-41	-4	547	-20	31
-79	205	294	79	31
-116	225	-470	176	31
35	96	-753	161	31
-23	-76	-374	156	31
-29	-188	-72	45	31
50	-10	244	-242	31
1	144	522	-265	31
-7	123	543	-105	31
108	81	235	-122	31
232	-176	-56	-88	31
156	-376	-206	-162	31
16	-263	-310	-246	31
27	-164	-215	-112	31
139	-64	-130	62	31
-2	152	-60	205	31
-6	339	-49	203	31
74	362	-63	8	31
-64	112	65	-97	31
-82	-307	-31	-13	31
-93	-413	-249	66	31
-59	-76	-234	89	31
-33	126	-147	52	31
9	90	39	-3	31
-40	22	338	-82	31
-124	-39	493	-48	31
42	-101	373	44	31
1	-82	235	-51	31
-72	57	245	-157	31
8	112	172	-48	31
2	197	119	83	31
86	250	83	99	31
14	135	98	145	31
-27	5	84	147	31
-15	-145	-136	134	31
-36	-31	-344	144	31
29	466	-526	119	31
-52	707	-647	20	31
-61	435	-486	-112	31
-72	-229	-57	-99	31
-86	-986	180	-46	31
-124	-928	255	-27	31
-110	-314	252	-25	31
66	-17	-84	-1	31
209	71	-237	68	31
236	125	72	-9	31
-22	131	197	-142	31
-155	125	147	-140	31
-112	111	134	-14	31
107	155	-189	93	31
139	244	-167	101	31
-158	175	217	74	31
-13	61	280	75	31
-119	-59	178	87	31
-264	-93	-64	74	31
-23	56	-152	-41	31
62	92	23	-150	31
38	15	97	-117	31
17	-102	64	-81	31
44	-102	165	20	31
65	54	194	131	31
131	17	-125	196	31
29	-164	-233	167	31
79	-187	-215	-100	31
144	-104	-455	-299	31
45	-37	-347	-195	31
62	27	13	-50	31
-50	26	376	-19	31
-76	28	573	24	31
-34	82	402	83	31
-39	91	276	144	31
-44	96	159	179	31
-41	114	-94	66	31
-138	109	-230	2	31
-64	135	-94	111	31
84	104	-1	46	31
7	2	90	-275	31
81	-9	380	-391	31
11	-54	486	-95	31
72	-87	193	27	31
169	-234	-445	36	31
-13	-376	-830	114	31
7	-106	-662	30	31
104	85	-616	16	31
63	135	-319	14	31
-94	150	314	87	31
-131	180	378	152	31
-43	273	274	86	31
-11	106	164	42	31
-1	-56	-91	17	31
-32	-256	94	-7	31
-134	-424	364	-8	31
20	-167	187	114	31
195	43	-74	116	31
85	64	-139	46	31
75	192	-75	22	31
138	353	-112	-22	31
88	369	-161	-14	31
-32	257	-92	-19	31
-47	70	-147	-33	31
-19	-286	-166	-136	31
-67	-275	-27	-127	31
-200	83	210	-6	31
-166	62	222	20	31
19	-92	189	74	31
-44	-274	272	51	31
-24	-407	127	-40	31
35	-185	4	-79	31
-20	2	-145	-40	31
8	3	-190	-54	31
49	56	-118	-69	31
102	79	-24	-97	31
79	54	136	-17	31
108	81	140	154	31
163	58	28	-32	31
22	41	-147	-84	31
-67	46	-146	-19	31
9	20	-115	-8	31
-217	38	-171	19	31
-148	51	-69	-8	31
15	48	183	30	31
-315	42	340	37	31
-62	89	358	82	31
22	310	491	86	31
-64	429	327	82	31
53	244	-72	67	31
69	-42	-262	41	31
165	-433	-415	34	31
27	-625	-416	-19	31
92	-365	-274	-82	31
127	-89	-144	-95	31
82	9	-42	52	31
47	52	189	157	31
-51	92	417	65	31
-1	69	348	-17	31
-14	1	229	66	31
2	-29	262	86	31
-59	-19	151	-76	31
-13	66	-192	-230	31
-32	104	-262	-200	31
-103	41	-256	8	31
-30	55	-513	172	31
-32	214	-590	289	31
119	318	-272	177	31
2	167	52	54	31
-66	-174	-19	196	31
171	-408	-258	87	31
158	-174	-342	-265	31
14	179	-290	-457	31
-148	260	-309	-283	31
-151	194	-29	-121	31
-101	-100	589	-32	31
40	-353	853	99	31
-38	-142	831	99	31
-202	300	772	145	31
17	402	448	131	31
-8	169	-6	92	31
-1	-197	-139	36	31
131	-453	-134	-59	31
69	-54	-56	-97	31
15	460	-12	-77	31
47	293	3	94	31
71	-220	42	174	31
107	-596	-4	-4	31
184	-467	65	-89	31
75	-204	21	-22	31
-61	-198	-175	-31	31
2	-22	-298	-7	31
4	63	-217	-17	31
-19	31	-9	11	31
-44	93	1	132	31
-195	76	12	242	31
-61	162	205	255	31
29	265	239	118	31
-13	255	11	-11	31
57	127	-54	-130	31
37	-75	-65	-135	31
111	-193	-132	-146	31
100	-156	-56	-191	31
59	-12	53	-90	31
112	105	152	-1	31
49	135	15	58	31
-77	91	-137	113	31
-61	42	-173	-16	31
52	-80	-180	-246	31
34	-199	-131	-179	31
-5	-127	-210	-17	31
-31	46	-403	-13	31
-101	88	-668	46	31
-215	64	-431	16	31
-92	113	171	44	31
47	118	404	82	31
9	106	542	26	31
106	45	573	36	31
102	17	405	-17	31
23	46	281	-72	31
34	27	68	-134	31
89	84	-241	-40	31
89	199	-307	111	31
47	280	-246	218	31
-110	159	-229	307	31
-230	-141	-77	128	31
-82	-450	106	26	31
-54	-390	192	-29	31
-189	-49	332	-132	31
-80	32	370	-57	31
32	62	300	-42	31
-66	62	188	16	31
79	31	87	94	31
141	17	185	106	31
39	-24	272	112	31
47	17	127	77	31
74	-4	-274	164	31
88	74	-482	275	31
38	390	-552	27	31
43	822	-438	-484	31
27	1080	54	-365	31
10	689	222	-51	31
28	-413	-190	-163	31
-41	-1389	-478	-94	31
-96	-1472	-620	-47	31
-66	-810	-633	-17	31
-69	-259	-44	-7	31
-109	-94	470	-32	31
-31	91	623	28	31
124	160	632	9	31
67	205	491	-2	31
48	167	287	-14	31
121	61	28	11	31
-41	63	-128	123	31
-48	56	19	287	31
78	84	258	186	31
68	19	385	2	31
-27	-108	171	34	31
-41	-128	-402	-8	31
-64	20	-541	-69	31
-75	71	-302	-94	31
-42	51	-186	-66	31
-176	111	-217	42	31
26	68	-96	86	31
99	76	66	-9	31
-76	46	27	-48	31
-20	0	47	24	31
-44	32	147	10	31
107	50	270	38	31
130	107	210	154	31
-5	133	56	264	31
-49	139	-47	220	31
-43	100	-151	-54	31
41	44	-161	-476	31
52	31	-116	-568	31
65	122	53	-29	31
-60	270	116	119	31
-66	282	141	-9	31
-98	94	241	29	31
-77	-319	220	-75	31
61	-598	246	100	31
-6	-336	85	212	31
111	34	44	163	31
26	74	-64	115	31
68	66	-495	92	31
237	69	-564	76	31
-38	52	-381	26	31
-62	37	-152	42	31
47	-4	-91	-17	31
69	-3	-136	-79	31
29	-8	-19	-163	31
-30	9	127	-69	31
-7	40	300	51	31
-106	99	572	81	31
-192	190	566	72	31
-217	268	314	-12	31
-69	171	-37	-22	31
34	-154	-428	-41	31
-11	-383	-496	-75	31
113	-316	-312	-81	31
50	-79	-136	-55	31
12	-46	-278	-35	31
122	-69	-438	-1	31
100	16	-358	29	31
175	144	-89	72	31
96	418	275	70	31
42	431	621	6	31
20	176	781	-41	31
-128	-179	743	-99	31
-47	-528	724	-66	31
-36	-395	382	-21	31
-86	-126	-12	-86	31
-18	-68	-260	-9	31
21	-37	-458	62	31
-21	-22	-438	-55	31
-46	36	-194	28	31
33	72	18	47	31
49	52	-158	22	31
102	77	37	53	31
97	97	274	16	31
4	176	106	25	31
56	395	-52	-23	31
37	554	-362	-6	31
-57	568	-437	-27	31
-69	480	-261	19	31
-72	56	-7	114	31
-110	-356	276	18	31
46	-736	493	30	31
61	-1091	283	120	31
-252	-633	-127	106	31
-118	-187	-312	87	31
27	-76	-566	47	31
-136	80	-588	-24	31
52	45	-370	-55	31
116	100	-41	-68	31
42	72	223	-19	31
142	31	222	9	31
7	56	320	-43	31
-6	58	367	-56	31
93	105	145	11	31
-59	131	-32	28	31
-71	281	26	23	31
-119	390	125	56	31
-187	268	120	55	31
-136	-49	201	97	31
-62	-284	231	155	31
16	-39	114	176	31
16	215	-77	155	31
14	58	-179	-71	31
-51	-190	-121	-341	31
111	-299	57	-226	31
204	-135	237	-93	31
119	-1	203	-156	31
206	95	3	-154	31
129	247	-328	-100	31
-31	107	-514	17	31
-86	-24	-413	-47	31
-24	-115	-83	-104	31
20	-205	182	51	31
-33	-134	350	267	31
-35	-62	243	298	31
-73	9	-214	143	31
-91	29	-124	110	31
-51	58	132	37	31
25	69	49	46	31
111	64	19	100	31
1	102	-24	51	31
-97	164	-58	42	31
52	261	2	-15	31
74	251	-36	-63	31
35	147	-147	-6	31
151	-33	-284	-6	31
122	-145	-207	-131	31
78	-154	195	-116	31
-97	-294	433	-17	31
-198	-352	508	-45	31
-11	-218	364	-57	31
-36	-62	182	-30	31
-56	49	250	-1	31
-46	187	335	16	31
14	406	338	22	31
68	432	164	76	31
-27	189	62	48	31
-21	-134	-24	10	31
72	-276	-358	19	31
151	-114	-493	7	31
8	-192	-379	37	31
33	-431	-405	-39	31
123	-167	-598	-167	31
-16	217	-445	-52	31
26	310	-95	92	31
-6	146	-42	-21	31
-116	-142	136	-109	31
31	-98	217	-24	31
19	189	60	-12	31
-114	159	46	102	31
-94	-192	9	219	31
-129	-419	-37	57	31
-2	-254	37	-12	31
198	4	156	-66	31
142	144	254	-77	31
73	288	220	21	31
116	248	192	26	31
112	26	237	-18	31
41	-197	155	-74	31
48	-200	-161	-14	31
77	2	-322	7	31
21	6	-207	26	31
-62	15	-264	79	31
-99	76	-200	111	31
-95	34	-173	149	31
-188	36	-111	1	31
-267	27	250	-108	31
-155	74	284	-38	31
-118	79	96	-15	31
-191	41	-33	-26	31
-76	17	66	-41	31
112	-2	209	-50	31
219	91	184	-52	31
215	177	156	-59	31
106	317	-21	37	31
1	357	-357	168	31
50	137	-442	231	31
51	-97	-138	189	31
71	-388	180	-24	31
83	-536	441	-135	31
-156	-303	711	3	31
-44	-76	515	46	31
-9	12	-14	-20	31
-127	105	-187	-185	31
-14	137	-319	-221	31
-70	83	-457	-150	31
36	47	-83	-126	31
64	16	279	169	31
138	-46	-116	222	31
177	-22	-401	31	31
-5	16	-312	-111	31
64	109	-412	-104	31
74	543	-162	290	31
26	967	197	374	31
-3	768	267	135	31
-59	-162	199	41	31
-138	-1434	186	-119	31
-138	-1592	214	-169	31
-32	-491	200	-127	31
-50	7	10	-84	31
-136	52	-219	23	31
-326	155	-190	10	31
-204	111	-210	11	31
202	137	-147	90	31
126	114	61	57	31
51	248	343	-115	31
130	324	432	-122	31
137	177	189	-9	31
156	-32	39	-71	31
-9	-211	-69	-96	31
-27	-66	-154	-108	31
13	67	-52	-93	31
42	28	27	45	31
-59	56	13	19	31
-194	54	82	-3	31
-42	29	25	17	31
15	39	-145	-10	31
19	34	-247	5	31
59	54	-165	-13	31
-1	71	-57	-1	31
26	55	-13	26	31
-6	56	162	90	31
-105	71	122	201	31
131	54	-15	185	31
156	31	112	74	31
57	18	292	54	31
96	10	254	71	31
14	69	-39	95	31
-22	129	42	124	31
-25	46	302	46	31
46	-14	29	-93	31
-107	123	-215	-206	31
-130	414	-338	-216	31
71	581	-590	-77	31
126	290	-580	89	31
-41	-390	-314	72	31
-440	-988	-112	24	31
-104	-864	-32	19	31
285	-319	12	14	31
141	-67	21	87	31
142	66	113	72	31
52	185	211	-61	31
39	308	317	-131	31
7	344	380	-75	31
-9	137	287	-48	31
-16	-134	94	-1	31
-122	-319	-134	29	31
-64	-209	7	64	31
-74	-71	265	277	31
-114	-52	206	141	31
-133	42	-101	-100	31
-72	111	-255	56	31
-1	193	-72	-16	31
34	209	-84	-87	31
111	180	-268	-149	31
68	189	-212	-229	31
33	43	1	29	31
67	-91	33	36	31
41	-230	36	14	31
-17	-318	67	-1	31
63	-73	6	-73	31
168	36	290	2	31
-62	36	801	-12	31
-136	66	848	21	31
72	40	480	10	31
-14	73	-32	5	31
-137	36	-598	22	31
-142	37	-970	32	31
-24	31	-756	10	31
93	21	-196	-6	31
51	41	113	159	31
54	48	295	197	31
36	150	348	13	31
81	235	379	-112	31
102	175	359	32	31
105	-46	-77	106	31
24	-272	-410	-80	31
-76	-245	-562	-225	31
-37	-47	-596	-198	31
-58	-34	57	-77	31
94	17	784	-11	31
2	250	583	242	31
-220	329	-4	285	31
-82	187	-147	68	31
41	-195	-363	13	31
-2	-516	-658	5	31
2	-338	-602	72	31
122	-25	-260	-39	31
-11	57	-83	-174	31
25	132	-215	-93	31
79	147	107	-98	31
-11	77	444	-101	31
80	16	515	42	31
-18	-72	607	128	31
-23	-90	483	134	31
26	-39	212	79	31
-64	17	-38	43	31
-56	39	30	46	31
-12	43	157	-24	31
-37	44	228	-107	31
-12	17	141	-102	31
46	-9	-42	-69	31
105	-22	-325	-73	31
133	-12	-624	-11	31
11	34	-425	42	31
-79	170	24	12	31
-21	284	573	1	31
100	242	437	6	31
28	12	-151	128	31
24	-381	-183	366	31
148	-428	-216	264	31
-29	-155	-249	-94	31
-209	-83	193	-33	31
-116	44	390	79	31
-76	230	41	-32	31
-159	315	-202	-239	31
-135	259	-362	-325	31
-96	25	-222	31	31
-30	-154	82	64	31
-52	-89	299	-24	31
4	364	275	-94	31
159	845	-7	-243	31
114	724	-264	-32	31
59	-62	-571	33	31
38	-938	-257	27	31
229	-1334	192	-6	31
160	-782	174	27	31
-94	-72	222	137	31
19	8	142	131	31
-73	112	-180	194	31
-59	122	-572	157	31
54	102	-639	75	31
0	135	-84	-39	31
25	31	367	-142	31
-27	-41	545	-136	31
-17	-102	625	-75	31
-6	-23	376	-112	31
-19	22	331	-130	31
-64	39	388	-30	31
46	64	363	7	31
163	67	300	83	31
52	121	-86	134	31
152	154	-328	78	31
7	149	-303	-6	31
-114	112	-281	64	31
41	108	-322	161	31
-76	122	-280	103	31
-45	324	-47	72	31
-54	614	415	106	31
-59	563	610	95	31
-51	74	185	-51	31
-204	-681	-127	-268	31
-26	-897	-167	-219	31
112	-365	-277	-235	31
26	-58	-423	-489	31
-71	-26	-693	96	31
39	38	-761	781	31
134	44	-64	693	31
-85	154	553	294	31
-40	272	324	-83	31
108	211	97	-136	31
37	68	-23	-127	31
-34	-42	-508	-57	31
12	-116	-572	-165	31
69	-131	29	-325	31
16	-229	501	-212	31
-77	-216	428	72	31
-69	2	432	208	31
-152	24	330	12	31
-41	45	-128	-119	31
136	174	-275	-157	31
-21	198	-244	-179	31
67	131	-163	-199	31
143	15	9	-132	31
81	-104	215	212	31
57	-161	204	531	31
76	-112	83	196	31
124	39	104	-212	31
11	209	137	-59	31
-96	235	209	-36	31
-54	200	343	1	31
-29	41	339	118	31
-177	-187	8	53	31
-162	-236	-358	74	31
-123	-263	-561	74	31
-55	-159	-460	-54	31
57	-24	-110	-254	31
3	-52	72	-204	31
118	-2	122	-61	31
55	-3	201	-85	31
102	-12	393	-35	31
51	14	366	-59	31
-64	16	142	-71	31
122	124	-18	19	31
-18	149	-324	122	31
-32	84	-327	191	31
-87	39	179	132	31
-122	-7	472	117	31
17	-35	164	133	31
-8	-17	-167	214	31
0	18	-557	252	31
-44	11	-1269	176	31
-131	0	-1059	242	31
-101	14	79	108	31
114	32	556	-187	31
186	44	605	-209	31
184	16	589	-350	31
-66	-1	408	-464	31
-144	21	367	-208	31
210	83	254	-26	31
-67	287	157	39	31
-12	463	114	27	31
96	350	205	-32	31
-183	29	142	-89	31
-91	-224	-206	29	31
-150	-59	-624	263	31
-134	244	-779	74	31
-75	112	-530	49	31
5	-398	-293	181	31
-62	-805	32	117	31
-55	-739	142	12	31
83	-398	321	-200	31
79	-69	544	-78	31
239	42	348	51	31
300	47	-43	130	31
107	127	-235	166	31
-188	250	-49	92	31
-80	283	112	92	31
35	119	300	107	31
-34	-27	352	152	31
-9	-46	256	36	31
-68	60	388	-40	31
40	77	289	-109	31
-12	-41	-168	-147	31
30	-104	-310	-167	31
157	-77	-488	-109	31
44	0	-631	74	31
109	48	-305	20	31
139	79	38	-101	31
171	84	124	-184	31
116	152	14	-148	31
17	212	-84	-23	31
29	152	-161	13	31
-74	44	-164	81	31
-84	-123	-218	56	31
-13	-227	-142	-126	31
-48	-105	-3	-200	31
-137	33	34	-233	31
-194	22	249	-285	31
-119	44	315	-109	31
-12	52	315	144	31
-12	39	519	548	31
-24	53	611	609	31
-16	27	423	208	31
112	40	50	99	31
78	82	-231	45	31
-75	117	-387	-80	31
6	88	-432	-206	31
100	11	-186	-100	31
106	4	-49	-61	31
111	71	-156	-189	31
26	94	-96	-133	31
-249	3	-197	-125	31
-290	-182	-213	-37	31
-94	-232	-27	27	31
-59	89	21	97	31
-52	291	196	134	31
-23	145	147	149	31
-5	-81	81	141	31
-10	-357	62	69	31
-3	-313	77	128	31
92	-109	248	100	31
121	-109	222	95	31
106	-4	222	-31	31
184	45	-22	-203	31
54	12	-425	61	31
-238	49	-572	74	31
-122	76	-443	-297	31
17	135	-152	-126	31
-96	142	38	-107	31
46	88	244	-153	31
107	37	152	6	31
24	31	-199	15	31
38	44	-355	212	31
26	35	-79	171	31
13	24	498	121	31
-39	1	874	82	31
66	-8	956	-33	31
116	16	411	-77	31
137	170	-437	-74	31
212	406	-927	58	31
86	428	-403	49	31
-29	142	620	-19	31
-26	-392	333	69	31
7	-692	-146	148	31
-22	-205	-372	-52	31
-40	223	-831	-69	31
-325	94	-480	234	31
-264	46	156	355	31
78	51	746	50	31
-119	-91	958	-78	31
-6	-253	649	20	31
107	-374	284	-267	31
52	-605	-380	-315	31
124	-483	-856	-287	31
89	31	-854	-310	31
133	207	-417	-104	31
91	259	-225	67	31
136	247	-165	124	31
148	116	538	-57	31
-121	34	694	-119	31
-164	-30	154	-9	31
110	-34	-245	132	31
31	-16	-273	457	31
-64	2	-341	692	31
13	37	-508	447	31
-142	123	-259	-86	31
-68	275	150	-238	31
49	373	222	-217	31
47	225	167	-521	31
-47	1	591	-777	31
-64	-194	862	-416	31
92	-181	574	174	31
24	14	379	455	31
49	-46	207	343	31
102	-90	-81	212	31
-14	-32	-145	101	31
-26	10	-2	-66	31
15	151	451	29	31
111	241	631	64	31
96	229	-76	151	31
-148	81	-576	139	31
-349	-160	-799	56	31
-152	-288	-980	-1	31
72	-139	-513	-134	31
-39	-27	-160	-147	31
74	-116	-92	-144	31
41	-147	89	12	31
-35	-106	132	244	31
76	19	33	307	31
14	116	57	89	31
55	207	11	-6	31
-11	206	-296	4	31
-71	0	-424	-28	31
-62	-262	-316	-7	31
-75	-340	14	-249	31
59	-56	505	-283	31
111	61	689	-46	31
-16	11	516	-61	31
-53	54	251	-51	31
-65	74	100	-14	31
-95	165	67	-34	31
11	300	63	-7	31
-7	412	-18	-27	31
96	265	-71	-9	31
148	-9	-44	11	31
-51	-271	-62	54	31
-99	-403	-59	91	31
102	-313	30	92	31
200	-410	163	92	31
-27	-260	142	29	31
-19	26	22	-41	31
-59	117	-59	-105	31
-206	313	-245	-115	31
-141	323	-407	-79	31
7	217	-418	39	31
65	124	-413	173	31
1	-14	-335	159	31
116	-157	17	31	31
45	-290	426	-31	31
-47	-330	596	-4	31
39	-252	558	-19	31
116	-47	478	-6	31
101	27	517	5	31
-41	53	450	-5	31
36	197	363	-3	31
89	255	166	14	31
72	214	-278	102	31
-71	122	-654	247	31
-275	-53	-995	354	31
-89	-270	-827	236	31
-82	-216	-573	-50	31
-64	5	-400	-287	31
92	59	68	-297	31
-82	32	-32	-256	31
51	11	11	-489	31
116	42	358	-465	31
-19	103	227	-143	31
169	165	107	140	31
197	281	-10	446	31
98	393	-117	369	31
104	347	45	72	31
54	150	285	7	31
26	-141	94	-30	31
46	-341	-433	-110	31
-49	-142	-638	39	31
-91	109	-386	254	31
-19	-9	416	344	31
-110	-319	1136	-9	31
-88	-408	930	-332	31
6	-162	357	-370	31
30	2	-281	-109	31
37	-2	-639	438	31
-56	43	-37	454	31
88	136	668	322	31
87	228	1025	54	31
26	190	882	-223	31
81	76	200	-247	31
-24	-61	-506	-231	31
-61	-194	-1306	-181	31
-9	-162	-1267	-167	31
1	-26	-977	-192	31
-194	100	-951	-411	31
-256	241	-262	-337	31
-109	367	375	-255	31
-149	289	651	-97	31
-139	131	674	631	31
71	7	393	793	31
88	-135	88	385	31
78	-120	4	240	31
33	-230	-72	127	31
-1	-437	-22	81	31
180	-289	99	87	31
126	-34	146	-93	31
99	94	418	-174	31
52	302	698	-82	31
-101	491	480	54	31
-21	365	-101	-26	31
-81	-66	-324	-166	31
-117	-469	-144	-29	31
-106	-493	283	176	31
-143	-282	295	226	31
-141	-87	-284	262	31
-67	-12	-500	149	31
94	8	-383	-174	31
26	13	-224	-454	31
76	18	-32	-489	31
126	56	227	-131	31
79	57	173	10	31
153	71	-42	14	31
116	104	9	57	31
172	208	6	-26	31
177	259	52	19	31
69	155	34	-14	31
48	-75	43	-9	31
-3	-321	120	26	31
-49	-174	66	40	31
-84	142	-3	32	31
-141	235	-52	-2	31
-111	215	-24	11	31
-65	86	-32	-8	31
-9	-119	-27	10	31
96	-270	0	9	31
63	-160	11	19	31
98	13	-20	7	31
62	-1	-31	-4	31
-29	36	146	1	31
59	51	247	-29	31
-17	21	86	-24	31
54	21	-114	4	31
67	-17	-186	69	31
-230	-4	-91	112	31
-260	140	215	131	31
-63	481	297	108	31
13	613	-74	64	31
-27	315	-467	42	31
-16	-85	-462	58	31
-8	-548	-93	110	31
11	-633	-66	123	31
126	-254	-204	86	31
195	-201	-162	-150	31
116	-329	-106	-340	31
61	-139	-28	-197	31
18	96	-112	-138	31
-67	153	6	-119	31
28	106	84	-54	31
47	54	-33	-36	31
-50	60	-13	135	31
-45	70	46	199	31
-126	67	131	140	31
-109	134	-42	74	31
-81	105	-107	-74	31
-73	-31	158	-242	31
21	-81	443	-221	31
2	-119	819	49	31
24	-137	877	390	31
49	-24	213	400	31
47	76	-595	122	31
16	-14	-1069	262	31
54	24	-969	293	31
116	178	-247	-167	31
6	165	214	-185	31
-9	37	346	-4	31
-3	-242	314	-93	31
5	-243	262	-176	31
-40	122	234	-277	31
-127	293	332	-54	31
-79	283	719	23	31
-131	124	491	-169	31
-89	-140	-94	-222	31
10	-134	-244	-292	31
-25	-76	-123	129	31
-55	-245	-551	487	31
-44	-190	-428	243	31
15	16	149	16	31
81	9	-305	22	31
115	20	-225	-98	31
24	37	102	-330	31
-18	11	112	-247	31
-7	13	158	42	31
-26	43	11	-190	31
-51	219	-288	75	31
-46	345	-833	1053	31
21	197	-377	474	31
-37	-111	499	-475	31
-22	-427	568	-316	31
72	-503	500	-86	31
10	-284	658	-162	31
-204	-92	533	-340	31
-187	58	2	-191	31
54	192	-304	1	31
56	206	-456	137	31
77	259	-638	352	31
169	338	-586	47	31
277	391	-298	-410	31
225	337	69	-224	31
61	205	553	249	31
55	35	656	284	31
-81	-193	16	262	31
-186	-172	-464	476	31
-101	-133	-462	531	31
-116	-219	-335	64	31
-124	-171	130	-515	31
37	-135	521	-610	31
47	-164	415	-126	31
18	-133	109	76	31
29	127	2	-62	31
-34	399	-16	39	31
28	341	-127	-81	31
89	120	12	17	31
81	-283	179	82	31
81	-529	215	59	31
110	-111	82	85	31
94	307	4	38	31
72	352	-39	69	31
-24	418	-83	52	31
-117	448	86	91	31
-76	140	7	34	31
-45	-475	6	21	31
129	-876	47	5	31
121	-564	-222	-24	31
-11	-1	-340	8	31
50	201	-302	43	31
89	213	-159	37	31
124	114	12	-22	31
-12	-61	-89	-4	31
-6	-213	-85	-2	31
137	-124	121	-10	31
-121	105	87	-14	31
-126	62	81	-2	31
-49	8	149	-6	31
-126	-34	86	-25	31
-64	-116	92	-25	31
-112	-41	81	-27	31
-61	49	35	-24	31
-35	55	-29	-32	31
-46	68	-57	-26	31
-20	173	49	-24	31
17	298	118	-1	31
30	263	114	13	31
-1	39	-40	-12	31
64	-173	-99	-26	31
112	-264	330	-54	31
74	-106	819	-54	31
68	26	937	23	31
157	26	615	120	31
-17	145	-316	165	31
-171	117	-1070	152	31
-52	25	-1221	85	31
-127	-54	-897	-80	31
-130	-127	-44	-227	31
34	-58	309	-101	31
51	-6	141	70	31
46	31	-222	17	31
101	30	-249	-51	31
106	31	239	-66	31
-21	47	414	-71	31
81	32	431	-108	31
179	57	144	-106	31
-12	162	46	50	31
43	318	43	309	31
34	305	-271	285	31
62	227	-93	-266	31
66	54	149	-257	31
-92	-299	-86	65	31
-79	-442	-126	79	31
-159	-470	191	286	31
-157	-358	212	87	31
-63	-117	173	-50	31
-146	26	184	87	31
-203	226	-206	45	31
-87	415	-486	-4	31
-8	582	-74	-182	31
69	372	447	-244	31
35	-241	428	-270	31
19	-592	170	-111	31
90	-609	-223	265	31
-35	-437	-654	127	31
-62	-109	-795	-102	31
27	190	-958	25	31
71	273	-641	80	31
11	196	328	290	31
-22	37	882	396	31
-54	-229	1090	356	31
-91	-313	906	462	31
-72	-69	254	559	31
-71	198	-237	169	31
-22	328	-615	-357	31
-31	198	-678	-277	31
3	-74	-508	-911	31
99	-249	-199	-1339	31
55	-210	211	-537	31
-3	16	301	-12	31
102	40	126	-91	31
102	41	42	-270	31
16	121	164	-96	31
40	109	339	336	31
13	156	722	833	31
16	135	1163	424	31
-46	134	1076	-221	31
-92	162	-250	221	31
92	111	-1275	474	31
84	46	-1265	166	31
84	-43	-1267	-48	31
152	-46	-322	-6	31
-55	45	596	-84	31
-71	101	519	141	31
84	55	-51	455	31
-9	-31	-195	13	31
-72	-107	330	-418	31
116	-10	330	-377	31
174	277	192	-109	31
23	345	-161	-39	31
-121	209	-330	61	31
-64	-33	-16	171	31
65	-410	99	119	31
-14	-508	396	160	31
-146	-443	661	72	31
-155	-397	457	37	31
76	-166	81	-4	31
121	31	-191	-20	31
88	155	-617	69	31
214	274	-640	51	31
154	294	-172	12	31
23	241	-49	-50	31
-75	80	-71	-74	31
41	16	-6	-49	31
27	286	105	-32	31
20	414	176	-19	31
46	19	12	7	31
-87	-400	-183	14	31
-20	-513	-127	-6	31
-102	-422	-37	-60	31
-88	-244	51	-103	31
-17	-116	173	-64	31
-112	71	167	-24	31
-133	212	101	-19	31
-42	206	-13	-22	31
17	44	-39	-12	31
22	-252	-62	-12	31
109	-184	-101	12	31
54	37	30	42	31
22	66	245	56	31
58	91	390	69	31
64	138	337	66	31
39	223	39	-29	31
-19	355	-350	-281	31
-46	580	-428	-302	31
-126	629	0	69	31
-72	381	257	126	31
31	-69	191	-19	31
-23	-571	207	69	31
14	-603	-228	166	31
27	-345	-510	166	31
-96	-172	-82	66	31
-13	-115	239	45	31
81	-210	81	74	31
152	-244	-7	94	31
114	-186	203	86	31
-48	-88	178	-38	31
94	10	30	-131	31
21	43	217	-89	31
-42	142	598	-157	31
116	275	809	-302	31
-73	294	496	-117	31
-166	184	-717	196	31
-103	36	-1742	296	31
-101	-131	-1833	87	31
-56	-152	-846	51	31
-24	23	638	316	31
74	105	838	164	31
104	197	413	4	31
-23	193	352	62	31
-77	8	177	-179	31
-77	-104	-318	-334	31
-52	-81	-558	145	31
-52	-81	-558	145	31
-51	-81	-563	145	31
-50	-80	-568	144	31
-49	-79	-573	144	31
-48	-78	-579	143	31
-47	-77	-584	143	31
-46	-77	-589	142	31
-45	-76	-595	141	31
-44	-75	-600	141	31
-43	-74	-605	140	31
-42	-73	-611	140	31
-41	-73	-616	139	31
-40	-72	-621	139	31
-39	-71	-626	138	31
-38	-70	-632	137	31
-37	-69	-637	137	31
-36	-69	-642	136	31
-35	-68	-648	136	31
-34	-67	-653	135	31
-33	-66	-658	134	31
-32	-65	-664	134	31
-31	-65	-669	133	31
-30	-64	-674	133	31
-29	-63	-679	132	31
-28	-62	-685	132	31
-27	-61	-690	131	31
-26	-61	-695	130	31
-25	-60	-701	130	31
-24	-59	-706	129	31
-23	-58	-711	129	31
-22	-57	-717	128	31
-21	-57	-722	127	31
-20	-56	-727	127	31
-19	-55	-732	126	31
-18	-54	-738	126	31
-17	-53	-743	125	31
-16	-53	-748	125	31
-15	-52	-754	124	31
-14	-51	-759	123	31
-13	-50	-764	123	31
-12	-49	-770	122	31
-11	-49	-775	122	31
-10	-48	-780	121	31
-9	-47	-785	120	31
-8	-46	-791	120	31
-7	-45	-796	119	31
-6	-45	-801	119	31
-5	-44	-807	118	31
-4	-43	-812	118	31
-3	-42	-817	117	31
-2	-41	-823	116	31
-1	-41	-828	116	31
0	-40	-833	115	31
1	-39	-838	115	31
2	-38	-844	114	31
3	-37	-849	113	31
4	-37	-854	113	31
5	-36	-860	112	31
6	-35	-865	112	31
7	-34	-870	111	31
8	-33	-876	111	31
9	-33	-881	110	31
10	-32	-886	109	31
11	-31	-891	109	31
12	-30	-897	108	31
13	-29	-902	108	31
14	-29	-907	107	31
15	-28	-913	107	31
16	-27	-918	106	31
17	-26	-923	105	31
18	-25	-929	105	31
19	-25	-934	104	31
20	-24	-939	104	31
21	-23	-944	103	31
22	-22	-950	102	31
23	-21	-955	102	31
24	-21	-960	101	31
25	-20	-966	101	31
26	-19	-971	100	31
27	-18	-976	100	31
28	-17	-982	99	31
29	-17	-987	98	31
30	-16	-992	98	31
31	-15	-997	97	31
32	-14	-1003	97	31
33	-13	-1008	96	31
34	-13	-1013	95	31
35	-12	-1019	95	31
36	-11	-1024	94	31
37	-10	-1029	94	31
38	-9	-1035	93	31
39	-9	-1040	93	31
40	-8	-1045	92	31
41	-7	-1050	91	31
42	-6	-1056	91	31
43	-5	-1061	90	31
44	-5	-1066	90	31
45	-4	-1072	89	31
46	-3	-1077	88	31
47	-2	-1082	88	31
48	-1	-1088	87	31
49	-1	-1093	87	31
50	0	-1098	86	31
51	1	-1103	86	31
52	2	-1109	85	31
53	3	-1114	84	31
54	3	-1119	84	31
55	4	-1125	83	31
56	5	-1130	83	31
57	6	-1135	82	31
58	7	-1141	81	31
155	107	-796	242	31
-11	302	-93	67	31
-65	385	270	-314	31
102	299	466	-424	31
107	169	217	-182	31
34	-150	-164	-73	31
50	-389	-183	96	31
-1	-388	-81	180	31
-48	-472	48	150	31
-57	-348	123	80	31
-119	-53	182	19	31
-181	-44	202	24	31
-101	-27	119	1	31
-36	24	49	21	31
-27	13	71	18	31
-2	147	198	79	31
-19	411	367	107	31
9	771	337	72	31
53	772	497	-11	31
96	211	991	-56	31
89	-574	412	82	31
63	-1162	-796	-52	31
56	-927	-1258	-207	31
59	-243	-1496	77	31
61	13	-864	42	31
2	95	291	-272	31
-115	161	928	-325	31
-192	135	1054	-213	31
-51	172	376	6	31
18	156	-553	433	31
24	136	-1222	392	31
126	82	-827	-216	31
-162	-11	-74	-38	31
-164	-9	130	200	31
204	-14	440	11	31
-5	-21	503	72	31
-46	6	459	26	31
109	6	487	38	31
143	33	260	-18	31
114	57	-77	-42	31
-7	54	12	6	31
-23	87	142	-22	31
-127	92	210	-11	31
39	113	317	-70	31
64	199	116	-96	31
-176	273	2	-99	31
-215	262	-322	-54	31
-162	225	-518	19	31
16	119	-347	151	31
16	-96	-100	162	31
70	-234	56	45	31
169	-363	-37	19	31
67	-410	-185	-54	31
71	-235	-140	-127	31
97	-79	89	-69	31
91	-49	-11	102	31
2	-34	76	129	31
-27	15	339	-29	31
91	94	229	-73	31
72	218	73	7	31
4	255	-48	74	31
9	120	-146	96	31
9	-99	-51	-7	31
-31	-267	133	25	31
-129	-145	352	225	31
-144	57	575	96	31
-32	121	370	-66	31
-14	178	308	-41	31
-38	89	290	-24	31
5	-99	16	82	31
38	-244	147	122	31
113	-190	-165	59	31
94	-15	-625	-77	31
107	-1	-633	-294	31
89	30	-919	-306	31
-137	55	-1012	92	31
-158	114	-594	312	31
-104	280	-179	-112	31
-117	343	45	-194	31
-86	300	197	-80	31
-93	57	400	-83	31
-27	-254	428	128	31
9	-322	299	132	31
-52	-432	66	162	31
11	-415	-271	41	31
71	-68	-53	-127	31
23	107	442	-137	31
71	332	750	-144	31
153	674	826	-93	31
153	571	175	178	31
94	59	-203	412	31
16	-523	-183	303	31
-40	-701	-289	166	31
-87	-337	-236	-9	31
-91	-54	-270	-61	31
-91	40	-149	-288	31
-31	89	-259	-266	31
-35	50	-484	-159	31
-62	64	-224	-257	31
30	29	452	-40	31
37	14	572	-4	31
0	28	81	119	31
60	37	91	132	31
161	51	65	51	31
117	36	79	34	31
91	56	248	-21	31
99	32	159	53	31
49	7	131	79	31
17	54	229	154	31
-116	168	434	163	31
-132	229	442	161	31
-11	150	88	131	31
-102	-25	-351	134	31
-144	-206	-772	110	31
12	-270	-624	-169	31
26	-195	-34	-373	31
17	-27	-265	-447	31
-2	47	-463	-495	31
-14	19	47	-329	31
65	36	25	-132	31
49	47	-378	171	31
116	46	-360	370	31
253	51	299	149	31
142	50	692	167	31
-124	76	281	132	31
-69	165	4	52	31
7	242	-227	122	31
-64	162	14	31	31
-58	-42	301	12	31
-123	-261	12	6	31
-114	-245	222	45	31
-108	-67	252	89	31
-122	-83	95	86	31
-46	-70	-77	44	31
31	24	-368	37	31
118	155	-493	29	31
82	382	-512	-4	31
69	345	-333	-2	31
168	45	-122	-24	31
22	-390	277	-38	31
-107	-626	470	-102	31
-54	-227	465	-202	31
-21	105	411	-274	31
32	69	246	7	31
42	114	25	282	31
9	247	-271	114	31
-130	398	-350	187	31
-241	323	-182	264	31
-97	71	104	-26	31
7	-373	321	-136	31
56	-701	439	-23	31
113	-368	358	-246	31
49	-34	156	-398	31
94	156	27	-19	31
146	525	-59	51	31
64	527	-217	29	31
33	97	-443	87	31
20	-411	-315	38	31
-32	-641	-44	62	31
-28	-313	140	157	31
-53	-59	243	95	31
-154	31	7	-38	31
-135	215	-127	54	31
-99	315	82	-24	31
-94	372	549	-141	31
94	196	640	-107	31
75	-21	2	-2	31
62	-155	-682	68	31
96	-303	-994	149	31
96	-303	-994	149	31
96	-301	-988	149	31
96	-299	-982	149	31
96	-296	-975	149	31
95	-294	-969	149	31
95	-291	-962	149	31
95	-289	-956	149	31
95	-286	-949	149	31
94	-284	-943	149	31
94	-281	-936	149	31
94	-279	-930	149	31
94	-276	-923	149	31
93	-274	-917	149	31
93	-272	-910	149	31
93	-269	-904	149	31
93	-267	-898	149	31
92	-264	-891	149	31
92	-262	-885	149	31
92	-259	-878	149	31
91	-257	-872	149	31
91	-254	-865	149	31
91	-252	-859	149	31
91	-249	-852	149	31
90	-247	-846	149	31
90	-244	-839	149	31
90	-242	-833	148	31
90	-240	-826	148	31
89	-237	-820	148	31
89	-235	-813	148	31
89	-232	-807	148	31
89	-230	-801	148	31
88	-227	-794	148	31
88	-225	-788	148	31
88	-222	-781	148	31
87	-220	-775	148	31
87	-217	-768	148	31
87	-215	-762	148	31
87	-212	-755	148	31
86	-210	-749	148	31
86	-208	-742	148	31
86	-205	-736	148	31
86	-203	-729	148	31
85	-200	-723	148	31
85	-198	-717	148	31
85	-195	-710	148	31
85	-193	-704	148	31
84	-190	-697	148	31
84	-188	-691	148	31
84	-185	-684	148	31
84	-183	-678	148	31
83	-180	-671	147	31
83	-178	-665	147	31
83	-176	-658	147	31
82	-173	-652	147	31
82	-171	-645	147	31
82	-168	-639	147	31
82	-166	-632	147	31
81	-163	-626	147	31
81	-161	-620	147	31
81	-158	-613	147	31
81	-156	-607	147	31
80	-153	-600	147	31
80	-151	-594	147	31
80	-149	-587	147	31
80	-146	-581	147	31
79	-144	-574	147	31
79	-141	-568	147	31
79	-139	-561	147	31
78	-136	-555	147	31
78	-134	-548	147	31
78	-131	-542	147	31
78	-129	-535	147	31
77	-126	-529	147	31
77	-124	-523	147	31
77	-121	-516	147	31
77	-119	-510	146	31
76	-117	-503	146	31
76	-114	-497	146	31
76	-112	-490	146	31
76	-109	-484	146	31
75	-107	-477	146	31
75	-104	-471	146	31
75	-102	-464	146	31
75	-99	-458	146	31
74	-97	-451	146	31
74	-94	-445	146	31
74	-92	-439	146	31
73	-89	-432	146	31
73	-87	-426	146	31
73	-85	-419	146	31
73	-82	-413	146	31
72	-80	-406	146	31
72	-77	-400	146	31
72	-75	-393	146	31
72	-72	-387	146	31
71	-70	-380	146	31
71	-67	-374	146	31
71	-65	-367	146	31
71	-62	-361	146	31
70	-60	-354	146	31
70	-57	-348	145	31
70	-55	-342	145	31
69	-53	-335	145	31
69	-50	-329	145	31
69	-48	-322	145	31
69	-45	-316	145	31
68	-43	-309	145	31
68	-40	-303	145	31
68	-38	-296	145	31
68	-35	-290	145	31
67	-33	-283	145	31
67	-30	-277	145	31
67	-28	-270	145	31
67	-26	-264	145	31
66	-23	-257	145	31
66	-21	-251	145	31
66	-18	-245	145	31
65	-16	-238	145	31
65	-13	-232	145	31
65	-11	-225	145	31
65	-8	-219	145	31
64	-6	-212	145	31
64	-3	-206	145	31
64	-1	-199	145	31
64	2	-193	145	31
63	4	-186	144	31
63	6	-180	144	31
63	9	-173	144	31
63	11	-167	144	31
62	14	-161	144	31
62	16	-154	144	31
62	19	-148	144	31
62	21	-141	144	31
61	24	-135	144	31
61	26	-128	144	31
61	29	-122	144	31
60	31	-115	144	31
60	34	-109	144	31
60	36	-102	144	31
60	38	-96	144	31
59	41	-89	144	31
59	43	-83	144	31
59	46	-76	144	31
59	48	-70	144	31
58	51	-64	144	31
58	53	-57	144	31
58	56	-51	144	31
58	58	-44	144	31
57	61	-38	144	31
57	63	-31	144	31
57	66	-25	143	31
56	68	-18	143	31
56	70	-12	143	31
56	73	-5	143	31
56	75	1	143	31
55	78	8	143	31
55	80	14	143	31
55	83	21	143	31
55	85	27	143	31
54	88	33	143	31
54	90	40	143	31
54	93	46	143	31
54	95	53	143	31
53	97	59	143	31
53	100	66	143	31
53	102	72	143	31
53	105	79	143	31
52	107	85	143	31
52	110	92	143	31
52	112	98	143	31
51	115	105	143	31
51	117	111	143	31
51	120	117	143	31
51	122	124	143	31
50	125	130	143	31
50	127	137	142	31
50	129	143	142	31
50	132	150	142	31
49	134	156	142	31
49	137	163	142	31
49	139	169	142	31
49	142	176	142	31
48	144	182	142	31
48	147	189	142	31
48	149	195	142	31
47	152	202	142	31
47	154	208	142	31
47	157	214	142	31
47	159	221	142	31
46	161	227	142	31
46	164	234	142	31
46	166	240	142	31
46	169	247	142	31
45	171	253	142	31
45	174	260	142	31
45	176	266	142	31
45	179	273	142	31
44	181	279	142	31
44	184	286	142	31
44	186	292	142	31
43	189	299	141	31
35	359	99	247	31
39	494	27	182	31
7	534	-259	46	31
-39	434	-590	64	31
25	12	-1050	45	31
12	-551	-1310	14	31
-38	-741	-942	67	31
-74	-578	-348	190	31
-94	-263	244	135	31
-108	-47	731	45	31
-47	-8	906	-47	31
-4	39	501	-438	31
-1	95	55	-449	31
72	95	-142	-56	31
3	42	-295	-80	31
19	-4	-50	-73	31
127	-31	245	53	31
266	18	365	17	31
92	84	428	2	31
-324	169	372	13	31
-107	242	352	43	31
20	195	623	17	31
26	214	854	27	31
74	264	208	29	31
-18	205	-496	10	31
65	36	-1034	32	31
-92	-255	-1365	55	31
-82	-346	-656	64	31
122	-27	-339	84	31
112	270	-270	137	31
62	322	91	87	31
62	116	183	1	31
84	-342	324	42	31
22	-642	156	130	31
-36	-493	-49	75	31
42	-106	-109	-152	31
118	106	-77	-235	31
32	319	100	-94	31
-107	402	181	-87	31
-31	144	170	-115	31
-52	-182	69	-91	31
-139	-458	209	-87	31
-26	-305	506	-68	31
-32	-29	555	-118	31
11	119	551	-87	31
6	228	385	11	31
11	160	-151	306	31
101	131	-462	603	31
105	93	38	397	31
97	133	465	185	31
58	176	-81	51	31
45	-92	-785	-48	31
66	-308	-1005	-47	31
94	-86	-594	-335	31
-152	171	-199	-261	31
-258	206	27	-6	31
-156	192	228	-189	31
-161	39	274	-144	31
-86	-222	455	-120	31
-121	-381	128	-173	31
-162	-401	-325	-126	31
20	-265	-388	-86	31
229	-6	-265	113	31
103	41	66	149	31
106	44	408	111	31
250	162	673	78	31
141	232	824	90	31
-44	258	561	87	31
-104	137	-30	64	31
71	37	-404	119	31
88	27	-749	131	31
-50	77	-482	147	31
-121	82	-101	87	31
-124	-46	-180	31	31
-139	-198	136	-12	31
-47	-146	294	-4	31
-71	217	242	44	31
-89	302	87	30	31
89	297	-186	-46	31
9	294	-307	-234	31
-87	-115	-119	-266	31
-64	-426	175	-122	31
-1	-536	189	-80	31
24	-441	199	-57	31
67	-124	167	-2	31
74	32	321	82	31
-28	42	446	116	31
-29	4	207	35	31
53	99	-36	52	31
-1	393	-316	80	31
-112	597	-527	112	31
-77	401	-240	86	31
-94	27	34	-11	31
116	-232	-200	-42	31
99	-221	-277	-169	31
-74	27	16	11	31
62	-82	382	27	31
88	-410	405	-295	31
144	-431	132	-222	31
109	71	-24	-194	31
91	660	-437	-91	31
111	670	-884	76	31
193	363	-400	270	31
57	-112	37	483	31
-136	-644	40	299	31
25	-688	197	97	31
-68	-441	101	42	31
11	-394	111	-136	31
27	-195	-114	-203	31
-167	84	-435	-123	31
-161	210	-563	-84	31
-101	317	-327	-18	31
-70	255	688	-23	31
-66	165	1473	151	31
145	54	1714	303	31
128	104	1174	156	31
104	527	138	97	31
142	994	-692	147	31
4	928	-1379	21	31
-67	112	-940	-224	31
-117	-962	-12	-108	31
55	-1549	104	179	31
109	-964	-199	159	31
-82	-259	-555	-78	31
-81	-114	-468	-321	31
-152	71	252	-265	31
-166	65	744	-66	31
-46	96	590	-78	31
-51	131	336	-75	31
41	111	-16	-85	31
-28	155	-106	-155	31
19	115	57	21	31
160	194	6	128	31
21	317	-262	44	31
107	347	-296	23	31
183	150	-72	-92	31
147	-21	26	-122	31
54	-9	149	-29	31
-250	175	24	57	31
-199	295	-79	203	31
65	24	-87	206	31
21	-185	-161	194	31
-24	-312	-168	174	31
-58	-359	-87	116	31
-40	-104	-99	197	31
10	401	-112	109	31
17	924	59	41	31
108	904	41	-19	31
107	392	91	-149	31
96	-298	127	-135	31
87	-987	156	-215	31
73	-1042	88	-212	31
65	-816	-51	66	31
94	-445	106	106	31
50	94	169	-193	31
-135	29	70	-106	31
-230	-11	184	48	31
-224	-6	314	72	31
-98	-31	15	66	31
-37	209	-255	67	31
-47	405	-237	116	31
-60	566	-64	64	31
-44	402	104	-9	31
16	1	131	-122	31
37	-347	32	52	31
74	-293	-99	89	31
-117	29	-344	57	31
-80	210	-566	102	31
243	109	-337	-96	31
124	-191	-161	-202	31
-13	-224	-5	-166	31
2	-72	395	-37	31
-41	81	750	81	31
-24	-26	921	161	31
-32	-137	505	47	31
-54	-35	37	-35	31
-62	12	-286	27	31
-34	62	-785	19	31
97	34	-561	19	31
117	56	-139	47	31
-52	79	-262	72	31
-22	79	-259	6	31
135	102	-153	-2	31
159	67	-16	-47	31
24	31	235	-70	31
17	-25	370	6	31
135	-20	306	7	31
-32	2	269	-10	31
-126	14	297	-17	31
-66	30	284	-2	31
-34	19	310	6	31
-24	11	330	-14	31
-31	13	565	-57	31
37	54	488	-50	31
32	103	-139	-59	31
91	131	-618	-79	31
50	112	-1088	-55	31
-49	71	-1264	-87	31
130	25	-740	-184	31
180	16	46	112	31
4	114	260	743	31
-51	174	243	636	31
19	119	116	333	31
125	-20	-64	254	31
52	-235	461	-227	31
-149	-322	616	-412	31
-115	-80	394	-209	31
-16	393	-116	-183	31
-75	829	-435	-282	31
-101	662	-74	-300	31
-55	-133	-66	-242	31
-169	-927	27	-182	31
-75	-1137	-108	-21	31
97	-529	-403	142	31
-55	-131	-478	69	31
-15	-108	-320	7	31
25	-8	-43	-34	31
7	74	-185	-92	31
100	250	-108	-75	31
50	245	205	-40	31
112	255	536	54	31
54	333	742	85	31
-106	321	680	94	31
-64	285	560	-43	31
-32	-81	294	-194	31
-44	-629	-136	-69	31
-207	-719	-442	361	31
-152	-288	-385	485	31
94	34	-232	174	31
-85	207	63	132	31
-62	382	333	91	31
163	291	367	148	31
79	55	152	122	31
121	-211	-140	-52	31
67	-244	-182	-67	31
13	-4	-412	-69	31
111	39	-339	-23	31
72	14	109	-12	31
-53	-38	162	-91	31
-124	-49	-15	-316	31
-50	51	-42	-160	31
-44	107	132	-62	31
-22	280	536	-237	31
19	456	723	-182	31
7	417	202	-145	31
97	189	-309	6	31
60	-109	-731	185	31
2	-341	-618	381	31
97	-338	52	429	31
65	-215	37	242	31
79	-27	-45	182	31
94	312	319	60	31
99	661	594	-169	31
71	929	320	-276	31
-65	804	-325	-265	31
-125	397	-661	-23	31
-81	-273	-1020	74	31
-58	-1218	-1138	50	31
-204	-1507	-395	129	31
-125	-1311	271	23	31
-44	-712	535	3	31
-82	-87	689	-4	31
34	-55	620	31	31
89	151	276	-4	31
104	232	-17	-71	31
82	272	-79	-61	31
104	309	-136	-62	31
94	167	-201	-6	31
62	117	-189	-85	31
27	4	111	-112	31
-51	63	344	-52	31
17	130	319	39	31
-41	158	132	113	31
-121	142	37	265	31
-14	116	275	231	31
-51	126	304	54	31
-63	88	280	89	31
60	116	373	55	31
96	77	313	31	31
-9	56	31	-30	31
67	36	-360	-102	31
166	14	-647	-126	31
14	22	-756	-141	31
41	8	-443	-234	31
49	32	-71	-192	31
32	46	226	30	31
29	68	375	-16	31
13	59	268	-33	31
-14	37	377	-140	31
-79	22	653	-254	31
-23	6	675	-17	31
-123	19	357	422	31
-152	22	-488	560	31
-63	4	-1506	274	31
-86	-38	-1342	167	31
-103	-29	-910	-132	31
-68	47	-783	-452	31
11	180	-31	-435	31
37	218	413	-299	31
61	115	432	-59	31
51	-42	461	196	31
109	-185	480	385	31
32	116	556	373	31
-87	610	556	170	31
35	536	450	-14	31
-16	-114	149	17	31
-38	-925	-285	6	31
-39	-1180	-736	11	31
-61	-691	-400	-14	31
2	-202	144	-40	31
16	81	205	-6	31
7	392	220	-68	31
-140	636	44	-41	31
54	619	-19	-10	31
183	212	-24	78	31
12	-170	-28	115	31
126	-157	141	-186	31
72	-65	466	-301	31
63	114	665	76	31
90	114	619	245	31
-22	-290	96	30	31
12	-699	-817	-167	31
38	-921	-874	-239	31
-98	-609	-400	-120	31
-166	-144	-230	110	31
20	17	80	132	31
-116	168	514	-10	31
-146	241	464	232	31
26	267	106	253	31
49	200	-81	144	31
23	127	-158	217	31
74	185	365	-82	31
159	176	137	-273	31
-24	164	-731	-244	31
37	148	-613	-67	31
27	140	-372	29	31
-26	135	388	105	31
-46	115	528	134	31
-152	135	78	90	31
33	133	-35	91	31
-127	109	-215	27	31
-172	64	79	-216	31
106	38	463	-592	31
49	104	660	-344	31
-9	243	74	-7	31
-131	382	-482	137	31
-149	314	-732	478	31
31	-49	-1036	237	31
66	-398	-643	-242	31
153	-702	-156	-269	31
67	-650	-77	-204	31
4	-139	70	-102	31
-51	21	235	76	31
-99	47	210	168	31
91	97	514	120	31
-17	12	764	-14	31
-126	22	631	-11	31
-55	82	448	152	31
-34	450	119	159	31
16	636	-26	65	31
58	338	-67	142	31
116	-56	-534	221	31
136	-393	-796	159	31
89	-202	-126	-8	31
56	227	590	-181	31
116	553	738	-201	31
151	616	871	-126	31
139	326	528	57	31
146	-142	-179	191	31
23	-738	-367	171	31
20	-901	-806	35	31
1	-860	-1092	-370	31
-83	-550	-295	-221	31
-66	19	333	279	31
-124	267	721	298	31
-134	428	623	523	31
-136	291	44	546	31
-105	83	-679	-9	31
-1	-119	-1287	-540	31
21	-253	-593	-458	31
-72	-125	-42	-250	31
46	-107	247	-454	31
150	-38	607	-307	31
106	-125	310	-126	31
211	-159	135	60	31
29	-29	75	237	31
5	35	330	144	31
31	134	445	179	31
-79	87	239	202	31
1	111	42	227	31
-99	99	-503	206	31
-30	96	-563	114	31
-51	179	-475	-23	31
-151	282	-687	-260	31
-63	362	-129	-335	31
-50	139	551	-318	31
58	-136	633	-439	31
67	-317	841	-340	31
-9	-77	937	51	31
93	255	658	102	31
134	109	184	305	31
101	-34	-417	573	31
69	-96	-460	387	31
-134	96	-150	277	31
-87	534	-362	166	31
-11	769	-649	-33	31
-151	482	-537	-39	31
-32	-408	31	102	31
6	-1058	385	-12	31
34	-912	337	-257	31
1	-482	246	-115	31
-62	-149	-324	200	31
53	36	-558	81	31
38	24	-197	-103	31
22	57	209	-175	31
59	75	746	-360	31
94	61	924	-283	31
64	81	684	-376	31
20	126	525	-475	31
34	493	-372	-273	31
78	757	-1433	-17	31
29	407	-1578	1115	31
-96	-198	-1957	1306	31
-55	-704	-919	-1	31
-94	-606	834	-282	31
-149	7	747	-342	31
56	282	576	-26	31
68	339	-75	682	31
-116	101	-677	609	31
-117	-145	-379	146	31
-54	-80	16	-82	31
-74	-293	463	-193	31
-175	-300	909	-234	31
54	-151	1217	34	31
206	-42	571	-44	31
164	147	87	-143	31
267	205	-159	-171	31
132	350	-348	-446	31
63	240	-183	-1018	31
-5	-19	-42	-1083	31
-63	-250	134	-959	31
-57	-314	252	-958	31
-37	-45	432	-598	31
12	58	86	-221	31
-154	103	-31	663	31
-151	102	662	1266	31
-74	149	1120	718	31
-45	227	912	303	31
56	50	132	1226	31
97	-97	-199	2040	31
-74	-92	-12	1348	31
-69	110	-114	603	31
74	149	-712	1036	31
-76	-107	-1563	692	31
30	-150	-2071	-1228	31
-69	-42	-1637	-1263	31
-138	74	-250	-450	31
81	493	656	-1019	31
-96	741	944	-528	31
-65	259	658	-190	31
92	-400	172	-230	31
29	-852	-287	1	31
62	-704	-523	-196	31
96	-209	224	-62	31
161	-28	348	-102	31
234	-64	501	-55	31
136	-164	698	-97	31
-30	-31	513	-63	31
-13	137	330	329	31
17	170	-101	291	31
-44	135	-69	-66	31
-44	80	-409	-85	31
-92	165	-681	-145	31
-117	385	-498	-174	31
-177	458	-380	-115	31
-137	147	-756	-311	31
-29	-280	-87	160	31
33	-524	1317	157	31
110	1	737	-532	31
71	978	305	-746	31
10	1062	-144	-93	31
36	355	-129	771	31
86	-405	1065	879	31
11	-1052	673	1056	31
79	-1169	79	455	31
113	-646	-202	-19	31
34	-97	-787	64	31
29	202	-787	-385	31
-159	403	-919	-319	31
43	450	-1611	-619	31
146	223	-1735	-507	31
46	-184	-424	-39	31
159	-598	2058	240	31
17	-621	3415	949	31
37	-134	2544	502	31
124	197	1529	-528	31
33	70	163	-747	31
-47	-11	-1777	-361	31
71	117	-2648	-115	31
-31	425	-1103	48	31
-84	549	426	-42	31
-14	224	304	-537	31
-174	-145	894	-238	31
-97	-357	591	-476	31
-81	-86	-161	-1079	31
-32	179	-1122	24	31
-30	222	-1654	1038	31
-48	307	-1175	1375	31
31	111	-731	1008	31
69	-40	-116	-148	31
84	-118	-749	-509	31
-68	-42	250	-94	31
-97	14	2203	301	31
-57	-109	2118	335	31
29	-47	1028	97	31
66	-45	296	18	31
41	7	24	255	31
95	38	-946	-66	31
126	-1	-920	-231	31
136	28	62	-219	31
77	9	-268	-259	31
16	145	-577	-69	31
-125	335	-428	-234	31
-227	366	-347	-66	31
-162	147	-174	-115	31
-145	-225	-59	152	31
-124	-450	1198	282	31
-30	-290	2625	-244	31
-39	-47	2567	89	31
17	11	701	455	31
74	23	-1880	287	31
4	-18	-2321	-2	31
16	1	-1258	66	31
47	8	-543	-103	31
146	-30	-526	-414	31
146	-43	-664	206	31
79	42	-286	109	31
-33	320	262	-970	31
-192	370	867	-1005	31
-181	84	1486	429	31
-249	-222	1458	1125	31
-490	-313	-560	221	31
-748	-115	-2070	-74	31
-593	4	-1495	-143	31
114	41	267	-355	31
573	9	1128	-184	31
380	-138	477	-107	31
144	-78	466	238	31
252	2	-132	387	31
478	-15	-166	-98	31
553	-5	658	-113	31
478	89	267	287	31
231	202	-152	449	31
102	187	-178	525	31
31	72	-75	293	31
-152	-117	101	184	31
-175	-130	-176	84	31
-149	153	-405	-56	31
-86	372	-354	-75	31
-49	385	-63	-457	31
-98	135	202	-754	31
-112	-338	280	-372	31
-25	-525	551	-289	31
54	-302	999	-436	31
15	-12	940	-199	31
-13	131	287	58	31
27	47	273	400	31
24	-182	-13	495	31
-42	-300	-1125	412	31
111	-101	-1990	-74	31
122	228	-931	-543	31
-62	269	912	-348	31
-53	-6	510	104	31
-174	-386	44	528	31
-134	-672	875	505	31
-27	-348	903	359	31
-138	68	-108	500	31
-123	60	-1114	-30	31
-114	170	-1824	-570	31
-39	182	-713	-334	31
-84	167	12	-613	31
-153	149	46	-610	31
37	50	495	196	31
115	124	-229	339	31
147	129	200	55	31
160	173	613	132	31
131	172	583	183	31
89	70	894	-442	31
9	-9	590	-475	31
-54	-42	-384	113	31
-164	6	-1471	490	31
-127	9	-1154	665	31
-1	24	360	172	31
-49	49	506	109	31
-52	44	-666	-99	31
-42	43	-117	-211	31
-103	50	617	1044	31
20	34	562	1434	31
27	25	242	247	31
-46	38	-61	-164	31
230	19	202	-604	31
288	-4	-120	-1251	31
86	-9	-241	-456	31
-22	-12	-256	9	31
-89	-35	-157	-293	31
-111	-7	-468	-558	31
-177	17	-1014	-314	31
-138	3	-205	-3	31
-155	4	1112	229	31
-97	-52	2475	312	31
28	-92	2529	303	31
80	-79	773	796	31
157	-87	-1303	508	31
97	-49	-1569	-122	31
18	23	-961	-733	31
103	58	-805	-1073	31
213	91	-229	-474	31
112	122	-40	176	31
37	139	262	397	31
-100	322	254	275	31
-242	545	-407	389	31
-291	338	-118	96	31
-349	-238	802	-414	31
-260	-744	1154	-431	31
-172	-660	831	-294	31
11	-209	260	100	31
147	-46	-703	980	31
15	44	-1200	1223	31
-151	29	-1136	172	31
-235	-27	-781	-592	31
-259	47	-529	-1028	31
-261	32	-292	-866	31
-214	32	420	-157	31
-261	-3	465	640	31
-291	-2	232	578	31
-18	21	394	-4	31
88	7	935	422	31
-119	19	916	164	31
-200	-19	684	-199	31
-246	-3	182	-384	31
-240	19	-741	-195	31
-139	91	-921	156	31
4	312	-815	-212	31
46	401	-142	-129	31
10	165	119	27	31
277	-177	-39	294	31
402	-461	884	186	31
420	-408	1088	99	31
374	-10	359	109	31
154	159	-233	-94	31
319	145	-1421	-271	31
312	172	-1782	-475	31
237	305	-327	144	31
371	283	942	373	31
330	-71	677	104	31
272	-368	50	129	31
144	-323	-387	82	31
148	-124	-514	203	31
66	-169	32	147	31
24	-152	147	-3	31
64	-71	74	-224	31
21	-41	200	-464	31
396	66	684	-257	31
412	90	1389	211	31
217	99	1173	412	31
254	94	330	223	31
112	111	-325	51	31
109	67	-627	-122	31
0	29	-284	-12	31
-104	126	-163	-238	31
-47	205	-342	-452	31
-24	193	235	-260	31
20	69	-54	-329	31
-9	-47	-368	311	31
-42	-160	-4	1138	31
-12	-187	107	368	31
-10	-155	465	-959	31
-19	-62	219	-546	31
20	41	-443	-239	31
15	41	-1093	547	31
19	138	-1206	1347	31
41	504	155	-194	31
-9	1149	530	-743	31
-56	1070	200	112	31
-19	88	-88	771	31
55	-885	-613	846	31
41	-1559	-365	-71	31
-127	-1192	-538	-915	31
-6	-408	-369	-730	31
184	-72	122	-518	31
-189	79	80	-171	31
-266	92	69	10	31
-72	210	462	-41	31
-190	179	964	4	31
-17	47	2210	-247	31
144	-85	2085	232	31
96	-154	-895	938	31
146	20	-2268	695	31
-63	80	-1844	-296	31
-137	96	-766	-904	31
51	147	155	-915	31
6	153	45	-729	31
-7	173	177	37	31
-39	154	88	954	31
-39	61	20	1167	31
-83	-42	201	352	31
-126	-47	458	25	31
32	-12	372	-102	31
3	16	717	-468	31
-59	27	1629	71	31
-144	-2	1255	402	31
-24	39	-151	472	31
-8	66	-1279	156	31
-27	54	-796	292	31
156	91	-445	324	31
49	67	-557	-414	31
41	19	-147	-219	31
16	7	92	-158	31
16	6	921	-274	31
7	25	1020	-260	31
-36	21	425	-224	31
-34	39	-10	46	31
-121	46	-387	-172	31
-58	13	-128	-411	31
-94	16	258	-209	31
-41	14	141	231	31
46	13	-460	289	31
14	7	-724	73	31
64	-12	-592	94	31
21	-9	-370	0	31
11	16	-245	-35	31
57	174	82	-17	31
101	428	112	-112	31
99	452	204	-133	31
17	116	613	-125	31
-46	-374	459	-11	31
-55	-499	560	277	31
-55	-81	212	459	31
-51	6	-596	113	31
-48	-330	-751	-186	31
-227	-458	-533	-91	31
-162	-318	-330	31	31
122	-80	-393	89	31
-64	-17	556	-102	31
-139	6	1125	-50	31
51	30	91	294	31
36	80	-383	434	31
-116	197	-627	34	31
-64	290	-993	-581	31
224	375	-683	-366	31
132	263	21	-68	31
-236	52	461	-52	31
-162	-36	468	31	31
293	262	307	27	31
19	648	942	405	31
-127	456	826	281	31
4	-143	-165	26	31
-147	-889	-354	9	31
19	-1163	-608	-186	31
-116	-606	-706	-119	31
-145	-136	-287	-107	31
20	-26	630	39	31
67	36	789	156	31
94	20	524	112	31
74	4	534	-57	31
132	14	467	-76	31
49	80	-111	-137	31
121	125	-827	-128	31
95	121	-285	236	31
-147	129	831	-104	31
-34	114	748	-332	31
-24	164	-684	292	31
-102	385	-1268	861	31
-182	657	-738	688	31
-290	545	-253	81	31
-56	88	-285	-377	31
91	-325	-349	-553	31
47	-582	-314	13	31
-56	-395	-154	132	31
-6	91	202	-522	31
117	320	433	-842	31
127	257	197	-497	31
141	25	-398	-122	31
154	-283	-177	-139	31
106	-420	52	169	31
-52	-247	129	42	31
-40	-17	443	72	31
-33	15	475	79	31
-121	31	625	-96	31
-124	18	433	94	31
-62	-19	1	59	31
-79	14	490	242	31
-121	-1	1351	336	31
-62	16	821	613	31
61	42	-959	565	31
193	1	-1790	-52	31
59	-22	-563	-218	31
-62	113	607	74	31
117	472	399	268	31
74	776	-100	-16	31
31	622	-224	-232	31
41	-45	-195	-235	31
-31	-764	-162	-260	31
302	-947	190	19	31
47	-639	-451	523	31
-265	-345	-1214	254	31
-88	-92	248	-605	31
-214	56	1419	-850	31
87	14	-266	-386	31
125	120	-1394	241	31
-132	182	-419	558	31
-159	142	229	329	31
-29	286	706	108	31
121	521	731	121	31
-54	669	334	-4	31
153	532	192	41	31
167	59	146	112	31
86	-520	224	170	31
109	-503	403	21	31
-70	-142	929	-342	31
51	-299	686	-151	31
32	-287	-628	267	31
-236	166	-1410	418	31
-260	565	-1701	270	31
-32	751	-1390	-324	31
5	472	116	-447	31
14	-34	821	-122	31
71	43	456	-164	31
-71	1032	816	-173	31
-69	1881	545	-112	31
205	1614	-360	16	31
240	18	287	-12	31
23	-2020	942	-76	31
-84	-3050	385	-27	31
24	-2443	-692	-69	31
232	-1118	-1193	-141	31
192	-380	-812	-417	31
-122	-21	-424	-181	31
-290	114	312	503	31
26	189	880	537	31
42	214	1127	624	31
-171	176	1187	703	31
-43	223	665	249	31
-106	162	-11	-57	31
-52	157	-694	-382	31
64	122	-1061	-592	31
4	121	-688	-150	31
101	133	-190	194	31
179	142	-70	129	31
145	265	214	144	31
269	262	1249	-235	31
159	349	1152	-247	31
-168	710	-843	221	31
-103	736	-1820	87	31
-102	339	-897	-29	31
-58	-31	476	-11	31
55	-498	698	33	31
-230	-331	-174	1	31
-104	199	-409	-209	31
17	7	274	-169	31
-82	-358	-122	105	31
20	-576	-838	168	31
68	-341	-222	-64	31
192	-13	320	-176	31
24	119	161	117	31
-2	156	-125	375	31
104	-148	-289	-135	31
164	-355	-215	-476	31
215	-372	433	-228	31
131	-205	1299	-187	31
101	55	994	-73	31
-154	425	-465	-108	31
-479	883	-1016	-206	31
-399	1077	-205	93	31
6	838	227	415	31
-12	139	293	164	31
-315	-691	372	-39	31
-19	-1125	230	179	31
271	-603	127	131	31
-84	-69	-187	162	31
-131	37	251	21	31
-105	441	610	-96	31
-319	594	75	126	31
-240	516	395	-157	31
132	377	816	-461	31
417	97	-50	124	31
311	-117	-1494	579	31
318	-398	-2048	431	31
463	-658	-467	183	31
-137	-766	687	29	31
-787	-779	224	-64	31
-228	-682	472	-201	31
85	-368	686	-149	31
154	-49	283	-251	31
429	-7	-228	-204	31
155	84	-661	168	31
302	290	-660	-33	31
305	252	-102	-359	31
219	169	448	-97	31
52	174	400	35	31
-394	95	129	151	31
152	174	324	164	31
200	514	640	-5	31
-74	693	184	153	31
-57	423	-817	134	31
-241	119	-1308	84	31
14	86	-986	-5	31
-79	143	-401	-305	31
-309	232	829	-543	31
-110	233	1718	-296	31
25	237	876	194	31
-79	484	-568	295	31
-16	608	-1302	269	31
200	276	-316	246	31
150	-227	582	264	31
17	-614	392	161	31
21	-421	212	-145	31
81	-48	-116	-259	31
50	-185	255	-72	31
-107	-661	602	-124	31
-207	-823	467	-85	31
-196	-165	199	231	31
16	122	-194	417	31
-140	71	-460	599	31
-651	69	-777	149	31
-165	71	-801	-108	31
419	546	-242	-219	31
98	655	475	-212	31
-18	448	339	214	31
122	123	-2	7	31
209	-240	212	-331	31
199	-426	136	-249	31
-51	-1018	-32	-161	31
20	-1241	-99	-172	31
-44	-529	-262	-36	31
-212	-116	-184	-158	31
-21	-48	-156	-60	31
34	122	-316	86	31
-37	471	-26	-64	31
-294	1094	90	-77	31
-25	1100	-423	-102	31
253	614	-17	-109	31
-29	-203	804	31	31
42	-1204	460	348	31
43	-1256	217	349	31
-148	-675	689	104	31
28	-61	879	-26	31
177	268	747	-44	31
-96	406	291	245	31
42	593	-663	127	31
234	537	-1237	-94	31
141	343	-975	61	31
288	-106	19	-94	31
156	-579	330	-126	31
-127	-470	-69	-109	31
-265	252	92	-102	31
-190	664	-61	-37	31
157	388	-52	-4	31
268	17	-53	109	31
-137	-509	-160	59	31
-322	-609	3	-86	31
-279	-194	132	-245	31
90	42	603	-325	31
534	263	525	-107	31
92	262	-478	229	31
44	97	-616	174	31
111	-9	397	44	31
-47	48	749	187	31
-19	450	1006	247	31
-64	883	676	105	31
8	1093	-1182	-100	31
-100	609	-2484	47	31
-230	-483	-2038	307	31
-53	-1235	353	102	31
39	-935	1217	-297	31
-155	-244	519	-632	31
-4	-131	654	-512	31
-39	-295	502	-219	31
30	-534	162	33	31
96	-377	-420	628	31
-73	184	-505	846	31
158	425	-277	190	31
92	353	479	-133	31
133	178	1521	13	31
166	358	926	-14	31
5	524	-400	406	31
-175	221	-871	311	31
-421	-57	-158	-44	31
-443	-277	-130	90	31
-285	-312	-761	-208	31
97	-111	-575	-330	31
249	-43	-673	-216	31
81	-29	-114	-94	31
200	-38	367	-39	31
268	-83	468	-170	31
62	-57	475	-214	31
-43	40	114	-322	31
74	134	338	-262	31
205	108	451	-105	31
-63	0	278	59	31
17	-160	-443	148	31
205	-129	-660	-27	31
91	114	51	-79	31
26	285	509	147	31
-355	403	66	195	31
-244	343	-94	-1	31
231	10	456	-65	31
68	-440	185	16	31
-39	-570	183	261	31
-60	-288	532	505	31
-112	-215	358	290	31
-19	-244	-480	-128	31
-21	-207	-1134	-38	31
51	-170	-553	-25	31
107	196	279	-327	31
31	671	245	-375	31
46	983	34	-279	31
26	1071	-170	-107	31
-84	948	-1016	203	31
-2	680	-1085	570	31
-70	337	-548	548	31
-73	94	-448	228	31
-69	-383	39	47	31
-140	-805	-64	-17	31
36	-902	26	15	31
41	-1019	1137	-63	31
168	-821	1351	-315	31
205	-481	618	-314	31
139	-268	-162	66	31
87	-160	-97	304	31
-152	-200	518	41	31
-87	-108	1036	-6	31
-105	194	709	389	31
-140	920	-319	-36	31
18	1591	-926	-625	31
89	1229	-511	-570	31
112	66	377	-344	31
-55	-980	333	131	31
-61	-1060	55	4	31
23	-498	-175	-169	31
-214	-141	-312	151	31
-195	-18	-320	435	31
146	-73	-398	420	31
202	72	-239	-77	31
131	348	148	-206	31
50	195	1015	-212	31
-126	-29	879	-168	31
34	-516	-91	30	31
137	-1118	-315	152	31
14	-781	112	224	31
-7	3	133	117	31
179	418	-1007	146	31
246	470	-1494	82	31
-52	348	-654	36	31
-162	-39	73	272	31
-182	-389	189	292	31
-225	-229	200	-7	31
-161	-94	-112	-117	31
67	-23	-376	-193	31
123	122	358	-212	31
-63	215	1161	-176	31
-64	322	1029	-244	31
-128	353	811	-117	31
-106	440	981	-224	31
256	487	687	-117	31
282	399	-51	163	31
154	228	-786	262	31
107	-13	-1339	249	31
-107	-122	-1594	-34	31
-184	-148	-1570	-75	31
-154	-43	-637	-11	31
-47	140	257	14	31
-58	241	733	24	31
-64	165	1001	-51	31
-54	-57	575	-76	31
21	-47	385	-131	31
75	7	198	-281	31
-74	-143	-159	-375	31
62	-342	-66	-197	31
59	-468	533	206	31
-33	-385	1188	510	31
105	-172	1112	337	31
305	-96	-229	2	31
327	-76	-1997	184	31
96	47	-1987	184	31
141	130	-503	-99	31
136	207	-32	-111	31
-67	333	363	-70	31
-113	521	474	202	31
-18	787	-229	515	31
-169	887	-362	192	31
-302	572	-473	-196	31
9	-85	-66	-40	31
107	-690	361	-19	31
-96	-746	616	77	31
-99	-489	480	57	31
134	-303	161	-132	31
-19	-109	320	-70	31
-50	-52	384	-106	31
69	-49	519	-108	31
-4	-27	606	-32	31
63	-39	481	84	31
-39	-11	-132	117	31
0	114	-446	37	31
77	324	-209	-52	31
-49	425	-77	-194	31
-182	411	141	-304	31
-76	128	249	-130	31
-54	-149	-146	56	31
-87	-140	-198	-6	31
89	-336	75	-46	31
151	-541	-352	-205	31
-9	-650	-826	-198	31
-272	-425	-791	-63	31
113	36	-311	164	31
210	58	30	604	31
12	164	201	464	31
200	356	61	9	31
-63	346	-196	-128	31
-2	289	352	-207	31
19	76	917	-133	31
-114	-252	451	-8	31
24	-466	-716	-104	31
-126	-423	-807	-117	31
-67	-121	-36	94	31
-134	114	52	285	31
-254	56	212	32	31
20	93	543	-41	31
103	46	411	134	31
76	-41	284	35	31
134	152	243	-29	31
34	639	341	-96	31
65	999	224	-65	31
123	601	19	-82	31
-46	-81	101	-65	31
-20	-866	62	-68	31
4	-1199	134	-124	31
-181	-942	-243	-27	31
-224	-596	-758	40	31
76	59	-388	103	31
181	386	-32	80	31
22	518	276	-2	31
-11	562	964	-76	31
-6	360	636	-115	31
177	317	-618	-21	31
150	348	-1600	107	31
101	252	-1381	111	31
194	-199	238	-48	31
81	-427	867	-14	31
120	-68	244	123	31
197	643	219	31	31
-136	957	364	67	31
-362	349	-459	161	31
-64	-453	-993	150	31
95	-1143	-194	34	31
52	-1022	-26	-203	31
-54	-291	-164	14	31
-216	-119	-42	503	31
-324	-20	-339	498	31
-137	113	109	-96	31
159	103	442	-232	31
-79	115	442	-12	31
-81	240	554	-211	31
134	346	413	-247	31
46	182	560	-242	31
109	156	815	-162	31
57	165	407	-224	31
-20	58	-229	-355	31
32	-41	-225	-204	31
4	-257	-121	235	31
11	-310	-69	572	31
-202	-164	-283	248	31
-294	-31	-561	117	31
-52	4	-224	74	31
16	1	185	-70	31
-33	27	62	-56	31
47	-35	-325	-84	31
110	22	-346	-54	31
127	318	58	-16	31
69	523	322	106	31
66	600	106	-127	31
107	583	-179	-450	31
-7	121	106	-219	31
-50	-305	393	-14	31
-59	-38	64	222	31
118	360	-260	568	31
-13	182	-508	479	31
-113	-345	-442	12	31
139	-830	-506	-371	31
-252	-1054	-124	-218	31
-339	-655	568	54	31
-42	-191	503	197	31
79	-9	798	255	31
59	74	932	299	31
30	71	354	172	31
180	104	265	-132	31
91	85	264	-203	31
152	85	-114	-447	31
89	92	-387	-154	31
-127	83	-498	289	31
-49	78	-332	7	31
103	61	-218	-184	31
37	68	-144	-106	31
22	31	-312	51	31
132	25	-271	61	31
17	39	-88	34	31
-19	94	-525	-67	31
-109	205	-448	-84	31
-116	242	-215	20	31
-71	229	97	25	31
-61	393	403	-8	31
71	897	83	-152	31
47	1158	16	8	31
104	700	-17	440	31
112	-263	117	312	31
4	-1322	385	-118	31
-81	-1600	367	-44	31
-72	-1113	278	-9	31
-101	-655	115	15	31
-124	-256	-32	97	31
-18	-61	-45	-36	31
-6	-10	119	-199	31
113	43	121	-308	31
-70	8	121	-127	31
-77	21	229	-69	31
54	73	173	-86	31
-23	180	310	-63	31
99	315	393	37	31
6	405	-362	292	31
-26	301	-1258	340	31
86	123	-1252	178	31
332	169	-407	-155	31
169	214	233	-280	31
-44	244	305	-186	31
82	323	428	-75	31
-129	232	254	188	31
-76	88	20	425	31
-17	-18	201	201	31
-126	29	185	-167	31
-104	268	-165	-118	31
-45	198	-205	-114	31
-56	-127	-47	-122	31
-110	-299	-37	-69	31
10	-293	-177	-13	31
-2	-224	-679	105	31
0	-229	-414	55	31
7	-185	739	-9	31
-30	-192	1008	34	31
-92	-195	644	131	31
-57	-29	154	52	31
184	107	-34	148	31
97	165	-72	172	31
14	192	-216	-96	31
22	333	96	-129	31
11	405	334	-187	31
-72	102	124	-99	31
-156	-323	-169	308	31
-65	-650	-268	399	31
-168	-616	-119	70	31
-168	-616	-119	70	31
-168	-606	-117	68	31
-167	-595	-115	65	31
-166	-584	-113	62	31
-166	-573	-110	59	31
-165	-562	-108	57	31
-164	-551	-106	54	31
-163	-540	-103	51	31
-163	-529	-101	48	31
-162	-518	-99	45	31
-161	-507	-96	43	31
-160	-496	-94	40	31
-160	-485	-92	37	31
-159	-474	-89	34	31
-158	-463	-87	31	31
-157	-452	-85	29	31
-157	-441	-82	26	31
-156	-430	-80	23	31
-155	-419	-78	20	31
-155	-409	-75	17	31
-154	-398	-73	15	31
-153	-387	-71	12	31
-152	-376	-68	9	31
-152	-365	-66	6	31
-151	-354	-64	4	31
-150	-343	-61	1	31
-149	-332	-59	-2	31
-149	-321	-57	-5	31
-148	-310	-54	-8	31
-147	-299	-52	-10	31
-146	-288	-50	-13	31
-146	-277	-47	-16	31
-145	-266	-45	-19	31
-144	-255	-43	-22	31
-143	-244	-40	-24	31
-143	-233	-38	-27	31
-142	-222	-36	-30	31
-141	-212	-33	-33	31
-141	-201	-31	-36	31
-140	-190	-29	-38	31
-139	-179	-26	-41	31
-138	-168	-24	-44	31
-138	-157	-22	-47	31
-137	-146	-19	-50	31
-136	-135	-17	-52	31
-135	-124	-15	-55	31
-135	-113	-12	-58	31
-134	-102	-10	-61	31
-133	-91	-8	-63	31
-132	-80	-5	-66	31
-132	-69	-3	-69	31
-131	-58	-1	-72	31
-130	-47	2	-75	31
-129	-36	4	-77	31
-129	-25	6	-80	31
-128	-14	9	-83	31
-127	-4	11	-86	31
-127	7	13	-89	31
-126	18	15	-91	31
-125	29	18	-94	31
-124	40	20	-97	31
-124	51	22	-100	31
-123	62	25	-103	31
-122	73	27	-105	31
-121	84	29	-108	31
-121	95	32	-111	31
-120	106	34	-114	31
-119	117	36	-116	31
-118	128	39	-119	31
-118	139	41	-122	31
-117	150	43	-125	31
-116	161	46	-128	31
-115	172	48	-130	31
-115	183	50	-133	31
-114	193	53	-136	31
-113	204	55	-139	31
-113	215	57	-142	31
-112	226	60	-144	31
-111	237	62	-147	31
-110	248	64	-150	31
-110	259	67	-153	31
-109	270	69	-156	31
-108	281	71	-158	31
-107	292	74	-161	31
-107	303	76	-164	31
-106	314	78	-167	31
-105	325	81	-170	31
-104	336	83	-172	31
-104	347	85	-175	31
-103	358	88	-178	31
-102	369	90	-181	31
-101	380	92	-183	31
-101	390	95	-186	31
-100	401	97	-189	31
-99	412	99	-192	31
-99	423	102	-195	31
-98	434	104	-197	31
-97	445	106	-200	31
-96	456	109	-203	31
-96	467	111	-206	31
-95	478	113	-209	31
-94	489	116	-211	31
-93	500	118	-214	31
-93	511	120	-217	31
-92	522	123	-220	31
-91	533	125	-223	31
-90	544	127	-225	31
-90	555	130	-228	31
-89	566	132	-231	31
-88	577	134	-234	31
-87	588	137	-237	31
-53	265	282	-321	31
-87	-253	507	-144	31
-117	-488	167	-52	31
-49	-466	-549	-6	31
25	-177	-722	154	31
82	36	-278	448	31
-12	101	74	348	31
69	449	112	19	31
121	872	48	17	31
80	944	-192	149	31
52	375	-29	131	31
74	-531	-472	157	31
61	-1060	-992	11	31
84	-839	-748	-435	31
115	-491	-247	-312	31
-218	-363	615	-115	31
-357	-80	907	-284	31
107	98	729	-164	31
245	138	388	-122	31
-77	71	300	-117	31
-257	-89	259	86	31
-122	-122	-91	190	31
206	-62	-451	211	31
102	47	-578	135	31
-58	74	-151	63	31
-51	96	67	51	31
-38	99	258	36	31
172	94	432	61	31
116	124	209	55	31
61	117	-27	47	31
147	140	-190	19	31
106	134	197	-7	31
-17	228	613	29	31
-20	357	395	60	31
-84	364	-106	51	31
-147	390	-387	26	31
-54	169	-44	43	31
-96	-216	102	-27	31
-34	-408	-124	-237	31
-76	-636	-100	-402	31
-63	-330	68	-402	31
85	631	-66	-368	31
54	987	-242	-205	31
24	845	-370	333	31
59	642	-453	840	31
170	-177	56	773	31
57	-1088	247	285	31
-48	-1565	329	-40	31
-84	-1304	401	-138	31
-156	-250	92	-183	31
-116	164	-141	-61	31
10	272	-287	67	31
177	495	-73	-32	31
-38	216	27	-74	31
-128	-126	47	-27	31
139	-434	25	-65	31
211	-410	-163	-86	31
-12	-98	-279	-74	31
-39	87	-176	-43	31
264	175	-22	6	31
113	283	42	31	31
2	481	316	-11	31
34	666	290	-28	31
10	723	405	-15	31
51	227	773	9	31
-36	-476	671	48	31
48	-687	-29	-69	31
-17	-475	-1082	-167	31
-96	-102	-1331	-39	31
-107	24	-848	153	31
-121	74	-299	258	31
-62	97	317	181	31
-67	43	533	-126	31
-9	55	760	-265	31
117	17	759	-117	31
82	26	61	-58	31
-92	59	-333	34	31
-12	94	-431	96	31
-22	135	-92	55	31
-19	163	244	17	31
42	155	174	-4	31
-82	108	280	2	31
-111	76	144	-54	31
-84	39	-182	74	31
-44	67	-502	178	31
-142	104	-799	16	31
-239	96	-826	0	31
-52	6	-237	47	31
272	-111	-154	56	31
261	-112	-279	7	31
-139	-162	303	-39	31
-75	-224	287	-147	31
276	-139	400	-231	31
137	-55	503	170	31
22	-19	425	330	31
110	11	646	49	31
37	108	464	-106	31
-7	317	370	-100	31
-12	396	199	-10	31
-41	272	-94	127	31
-81	50	-194	117	31
-41	-227	-73	-27	31
33	-232	231	-53	31
-66	-159	335	-74	31
-110	-107	57	-51	31
-54	268	-517	-16	31
11	365	-568	17	31
-51	92	-332	92	31
-16	-210	-164	31	31
150	-430	76	-24	31
12	-22	18	34	31
61	564	66	139	31
133	879	-62	334	31
12	960	-373	224	31
-29	453	-245	44	31
-127	-544	57	73	31
-26	-1449	46	-19	31
-22	-1716	-33	-124	31
-205	-1171	28	-466	31
-102	-323	66	-558	31
-9	239	230	-86	31
-67	338	174	156	31
26	56	254	202	31
109	-125	214	166	31
-32	-109	-81	-155	31
-22	244	-177	-360	31
160	648	224	-260	31
139	491	914	-26	31
114	97	545	54	31
108	-408	13	51	31
66	-559	-448	223	31
84	-105	-1055	187	31
-5	138	-894	126	31
-124	138	-515	59	31
-111	211	-138	24	31
-27	234	317	47	31
47	338	735	-164	31
87	391	896	-223	31
1	276	362	-192	31
94	96	-433	-60	31
-7	-214	-820	139	31
-268	-262	-564	317	31
61	-11	-418	432	31
194	82	-526	227	31
120	81	-49	27	31
64	32	581	-104	31
-67	-49	959	-212	31
-64	-39	852	-152	31
-135	8	703	-30	31
-191	31	712	117	31
-234	6	-21	337	31
-70	-115	-977	489	31
-57	-217	-1107	212	31
-75	61	-607	-120	31
41	558	-230	-108	31
-46	634	-14	-51	31
149	305	106	-9	31
167	-52	344	-179	31
32	-337	423	-410	31
65	-345	244	-240	31
39	-310	339	-103	31
75	-414	209	-187	31
66	-398	-122	-104	31
-12	-194	-372	-74	31
6	99	-337	-163	31
-16	107	-54	-57	31
-60	22	82	1	31
-37	-31	165	26	31
-59	-114	172	78	31
53	-35	151	58	31
11	46	81	69	31
-324	91	57	77	31
-200	114	96	92	31
185	162	52	61	31
96	276	-194	57	31
83	581	-465	61	31
160	742	-392	88	31
83	365	-304	145	31
126	-140	-63	28	31
-8	-549	138	-74	31
-139	-581	253	-1	31
-95	-315	373	56	31
1	175	26	72	31
71	702	-154	57	31
-61	284	-222	-31	31
-164	-455	-52	-57	31
-61	-825	505	-67	31
15	-713	937	-50	31
46	-138	1102	23	31
24	236	874	22	31
-57	578	136	1	31
91	431	-935	102	31
122	-11	-1441	169	31
18	-177	-1351	62	31
-11	-214	-361	-43	31
-45	-41	461	-122	31
26	-79	271	-102	31
-75	-212	141	34	31
-117	-313	-305	222	31
7	-209	-465	215	31
16	62	-144	36	31
-54	109	-49	-101	31
-77	111	-488	-386	31
-17	79	-616	-412	31
11	126	182	-136	31
57	162	585	106	31
84	164	662	377	31
99	203	475	327	31
96	243	375	176	31
14	361	512	89	31
-28	463	393	-56	31
-45	418	460	-134	31
77	93	473	-166	31
115	-355	287	-48	31
-13	-515	-63	46	31
45	-120	-391	4	31
34	262	-490	14	31
1	342	-261	-12	31
-29	283	142	-201	31
-137	-248	475	-63	31
-42	-751	178	269	31
22	-835	-568	193	31
-74	-496	-378	23	31
-41	-27	-278	-9	31
246	55	-563	-112	31
182	145	-507	-219	31
-55	235	-499	-66	31
55	183	81	129	31
36	123	486	174	31
-71	8	54	-8	31
-99	-36	-198	-81	31
-29	-1	-347	-76	31
76	39	-142	-174	31
59	57	210	-81	31
-110	0	29	-41	31
-79	93	237	-46	31
-97	486	322	-27	31
-227	686	69	-37	31
111	428	4	-65	31
157	-42	-47	-52	31
96	-468	87	-38	31
97	-614	210	66	31
-42	-565	298	290	31
-4	-474	49	289	31
-37	-309	-38	88	31
12	-75	498	12	31
-20	54	673	74	31
2	72	224	122	31
2	142	-448	133	31
-65	165	-750	61	31
-80	175	-267	46	31
-156	303	396	26	31
28	671	749	-76	31
-42	1053	652	-26	31
-117	711	106	-9	31
28	-160	-615	-141	31
-17	-746	-1184	-173	31
-4	-987	-1011	-255	31
-17	-825	-441	-266	31
52	-455	-71	97	31
85	-170	200	253	31
99	44	27	174	31
94	44	-56	-6	31
-180	83	133	-339	31
-42	164	491	-193	31
134	250	851	178	31
-76	378	418	234	31
-142	498	116	74	31
-158	594	46	4	31
47	267	-42	-44	31
104	-269	-16	-91	31
-26	-631	-139	-54	31
25	-574	-92	29	31
-22	-21	233	177	31
-45	240	448	143	31
-12	33	-112	36	31
205	-158	-962	-5	31
243	-77	-1271	14	31
111	353	-424	82	31
141	351	804	52	31
4	-86	1489	12	31
-40	-362	1534	-51	31
46	-411	480	-132	31
8	-188	-688	-97	31
-118	-83	-1188	-57	31
-49	26	-957	-76	31
-6	109	-518	-118	31
-98	66	-79	-36	31
-124	102	27	278	31
-26	62	-153	254	31
147	48	26	-38	31
97	28	132	-49	31
137	26	247	-70	31
136	106	310	-51	31
68	279	417	2	31
90	416	397	12	31
31	328	172	15	31
-72	164	151	-26	31
-68	-135	215	6	31
47	-330	119	39	31
6	-167	-244	139	31
-62	-61	-476	189	31
-61	-121	-523	153	31
-11	-131	-378	154	31
-71	-117	-320	45	31
-68	-87	-467	-150	31
-22	-27	-277	-392	31
11	21	194	-535	31
164	6	465	-127	31
-21	-25	360	357	31
-94	-17	172	182	31
47	44	204	2	31
9	128	279	-27	31
74	152	280	-59	31
-22	268	267	-36	31
-101	357	250	-35	31
-18	127	344	23	31
-28	-225	156	-39	31
-142	-474	-84	-49	31
-107	-343	76	-71	31
79	86	-221	-37	31
-27	277	-661	77	31
-44	459	-455	168	31
74	505	-520	290	31
92	189	-343	115	31
117	-160	247	-11	31
121	-439	238	-34	31
71	-408	238	-203	31
15	-167	241	-222	31
79	-44	309	-95	31
21	-195	350	141	31
-97	-196	263	192	31
-96	24	404	66	31
-112	200	169	32	31
-108	445	-433	-56	31
-41	379	-749	-88	31
-43	177	-708	-77	31
-77	21	-450	-27	31
-3	48	-248	219	31
-5	260	-141	367	31
-63	160	14	170	31
91	-60	-200	-79	31
253	-534	-283	-1	31
-129	-862	405	222	31
-166	-710	764	192	31
178	-510	427	24	31
7	-130	129	-71	31
-17	37	-180	-332	31
-54	78	106	-576	31
-134	99	246	-508	31
-6	47	145	-344	31
41	99	295	65	31
-78	64	3	250	31
-42	137	8	118	31
29	159	-170	162	31
-27	149	-470	95	31
91	131	-678	78	31
88	81	-552	136	31
56	159	281	209	31
71	203	701	195	31
141	174	728	16	31
99	123	230	-22	31
-21	129	-65	-42	31
1	100	165	-158	31
-34	67	-222	-21	31
-9	65	-803	259	31
-62	59	-730	111	31
-93	107	280	-118	31
-46	175	756	-178	31
-103	372	486	-132	31
43	425	175	-136	31
161	102	-313	-131	31
-36	-363	-263	-77	31
-43	-721	35	-168	31
30	-593	325	-128	31
56	-172	406	-51	31
147	69	296	37	31
91	373	146	138	31
18	622	-353	282	31
-10	374	-1047	278	31
31	-119	-1222	-31	31
-35	-595	-733	-131	31
-204	-696	64	46	31
-267	-240	636	133	31
-151	217	603	249	31
-32	537	491	251	31
-59	612	184	2	31
-7	260	72	87	31
-9	-367	82	79	31
-4	-837	140	-71	31
28	-693	255	-133	31
33	-352	182	-244	31
133	-112	242	-186	31
65	62	185	-124	31
51	54	154	-8	31
109	-26	169	12	31
16	107	253	41	31
136	265	309	42	31
114	334	376	33	31
-14	544	390	106	31
53	452	17	89	31
-59	194	-343	118	31
-57	54	-781	1	31
-47	-159	-1363	80	31
-79	-215	-1376	139	31
2	-214	-574	-207	31
9	-201	-374	-147	31
141	-83	-819	30	31
66	26	-262	125	31
-54	122	570	92	31
84	-28	661	-85	31
61	-312	657	-24	31
71	-246	545	-117	31
102	18	486	-99	31
-38	115	298	-101	31
-64	122	-157	-159	31
-32	82	-279	-141	31
-140	145	-234	-73	31
-114	428	348	116	31
40	658	884	175	31
-38	579	788	228	31
-14	-84	288	105	31
-21	-766	-237	51	31
-162	-886	-351	76	31
119	-697	-227	-12	31
173	-199	31	-60	31
-35	215	32	-35	31
-88	320	56	103	31
42	224	-74	71	31
26	-47	-266	63	31
-96	-205	-187	9	31
92	-89	-434	-176	31
-75	34	-906	-66	31
-192	-2	-744	17	31
-129	82	270	-124	31
-27	72	244	-20	31
29	-4	-176	-4	31
-101	34	266	-134	31
20	159	185	-60	31
47	328	124	-64	31
108	357	165	12	31
107	354	366	229	31
80	148	583	287	31
134	-90	596	76	31
51	-255	757	-44	31
48	-448	420	-3	31
-10	-369	97	-16	31
20	-165	-263	32	31
2	9	-299	30	31
-64	43	381	144	31
-73	121	599	321	31
-257	323	182	194	31
-175	347	-646	-21	31
-8	217	-1690	-128	31
-7	141	-1481	-154	31
51	342	-340	124	31
98	480	144	229	31
79	292	218	-189	31
32	-136	-125	-238	31
82	-767	-86	-193	31
97	-1075	141	-210	31
99	-901	22	-148	31
49	-390	-23	-237	31
22	62	-155	-141	31
69	101	-94	-7	31
-17	225	220	69	31
-54	528	856	46	31
-81	716	1096	59	31
-118	503	600	76	31
-89	-124	-325	-46	31
27	-638	-393	-117	31
121	-618	348	2	31
-4	-239	287	273	31
38	5	52	320	31
78	149	-338	-26	31
96	453	-476	-241	31
143	711	158	-91	31
-25	500	200	36	31
-32	-7	-294	84	31
105	-419	-568	24	31
51	-587	-525	-53	31
-170	-426	-85	-106	31
-12	-148	138	-45	31
-80	102	25	133	31
-245	199	-11	-11	31
1	265	185	-162	31
-89	390	501	32	31
-51	491	265	82	31
-43	548	181	134	31
-69	310	208	198	31
11	88	163	50	31
10	-278	414	80	31
109	-715	351	-71	31
61	-643	50	-182	31
76	-468	-157	-19	31
79	-241	-121	239	31
-9	-16	-184	339	31
-107	69	-227	42	31
-124	67	-333	-82	31
-44	37	-477	-177	31
-109	53	-547	-158	31
-41	51	-403	116	31
-34	86	515	137	31
-117	96	866	-176	31
6	155	159	-86	31
15	267	-854	192	31
69	277	-1183	154	31
298	174	-154	154	31
310	12	472	-45	31
113	-135	7	-240	31
108	-84	-428	-221	31
124	55	88	-161	31
-9	-21	564	-164	31
-47	-104	690	-13	31
-67	-111	706	106	31
-46	-37	336	29	31
-34	37	205	45	31
-71	127	-492	96	31
-83	372	-351	69	31
-81	431	282	-43	31
-32	252	114	39	31
-86	-121	-37	287	31
-50	-461	-436	233	31
23	-500	-367	-56	31
-17	-370	-187	-90	31
-19	46	11	-42	31
91	392	201	-126	31
235	280	-16	-240	31
174	-149	-328	-254	31
95	-606	-179	-123	31
21	-365	1034	44	31
-65	300	1671	231	31
-20	576	1034	272	31
141	601	561	317	31
11	326	-154	687	31
-163	-315	-1651	840	31
-14	-826	-1662	157	31
-36	-869	-1072	-1004	31
-27	-387	-896	-1644	31
-21	70	-104	-1204	31
-36	204	219	-462	31
-17	229	630	451	31
-72	160	608	1246	31
-26	157	398	911	31
-89	136	533	495	31
-78	99	290	127	31
75	77	-260	-33	31
82	69	-1062	-10	31
18	195	-508	-201	31
24	283	244	-151	31
43	224	386	-264	31
35	14	405	-75	31
28	-259	-204	28	31
-118	-270	-264	-6	31
-109	48	-200	-91	31
126	189	37	-192	31
82	133	39	36	31
132	-4	-239	57	31
155	-245	332	-77	31
-66	-190	1833	-216	31
-47	-152	3377	285	31
-41	-235	2307	559	31
26	-149	-690	382	31
106	-68	-3174	638	31
-112	13	-3795	452	31
-247	53	-2762	-115	31
-197	93	-1469	-486	31
-217	113	-373	-247	31
-181	106	463	-235	31
-107	160	1263	-550	31
-81	92	1479	-386	31
-17	-10	1125	-405	31
161	6	618	-255	31
397	54	345	79	31
358	66	324	-176	31
253	92	313	-411	31
242	121	485	-282	31
197	115	581	-97	31
75	93	556	-46	31
-25	60	225	-105	31
25	4	43	293	31
-44	-71	511	417	31
-101	-111	711	106	31
-157	-139	463	-257	31
-191	-108	314	-450	31
-74	-83	-421	-181	31
-82	-137	-1580	-191	31
-94	-61	-1687	523	31
-71	28	-533	1384	31
-76	-88	407	1363	31
-121	-196	-648	717	31
-71	-81	-1559	-102	31
61	118	-728	-281	31
107	240	-196	-959	31
162	315	126	-762	31
106	288	244	198	31
71	154	136	1180	31
104	146	1	1381	31
141	283	202	270	31
117	230	823	-189	31
37	-57	1510	-1378	31
123	-354	2252	-1937	31
104	-280	1197	-1009	31
-48	461	-427	-275	31
-84	687	-1209	881	31
-78	-42	-1360	1515	31
56	-760	-761	987	31
92	-1152	-731	583	31
11	-608	-554	1146	31
-111	178	238	513	31
-360	278	779	-899	31
-395	220	598	-1085	31
-319	50	295	-1359	31
-129	-164	287	-858	31
3	-164	643	-238	31
51	68	241	598	31
321	225	-1248	695	31
292	92	-2186	-96	31
-8	-57	-1504	96	31
-2	-57	-122	171	31
107	-15	-275	670	31
142	-157	236	525	31
127	-191	776	-721	31
70	42	380	-968	31
93	54	924	306	31
106	70	817	538	31
257	175	530	-245	31
321	129	538	-534	31
-12	83	86	-19	31
-172	38	146	124	31
-254	31	1534	-427	31
-535	1	2015	-164	31
-383	28	-87	-515	31
-71	90	-2270	-390	31
-79	58	-2765	-181	31
-63	26	-318	-314	31
-1	26	1408	228	31
118	31	-260	751	31
122	-34	-785	651	31
110	-33	-260	61	31
156	57	-139	189	31
-41	210	159	182	31
-89	260	546	59	31
-49	103	678	74	31
-71	-54	994	-138	31
-17	-166	731	-411	31
-184	-185	-417	-437	31
-696	-97	-824	277	31
-747	34	-704	455	31
-32	5	170	226	31
375	-39	656	137	31
400	-14	425	-108	31
219	-57	317	-582	31
132	-30	-332	-761	31
350	-4	-159	-14	31
320	18	227	692	31
263	-11	533	670	31
230	-61	836	252	31
198	-17	-205	127	31
92	4	-1217	203	31
-81	44	-1652	76	31
-217	59	-955	-209	31
-340	58	-114	-222	31
-255	69	362	-99	31
-257	39	951	-155	31
-139	14	97	23	31
74	2	-848	-78	31
62	-18	-666	-482	31
154	-28	333	-272	31
192	4	717	417	31
-32	0	74	608	31
-201	-21	-36	74	31
-224	-32	128	-297	31
-171	-52	171	-265	31
-38	-68	174	-568	31
-47	-85	392	-808	31
-76	-21	594	-485	31
-60	32	1450	260	31
2	31	1944	1452	31
165	27	475	1800	31
152	18	-1369	1344	31
72	66	-2762	652	31
-51	52	-1995	-176	31
-101	27	-129	-725	31
-19	37	656	-1308	31
-36	-4	934	-836	31
-128	-51	230	-439	31
-114	-116	-395	-683	31
-64	-117	-504	-576	31
-188	-46	167	-439	31
-194	42	1109	82	31
-81	141	983	468	31
-97	163	333	218	31
-237	132	-241	-307	31
-131	71	-493	41	31
300	41	-860	427	31
570	16	-833	183	31
416	-59	-407	-100	31
203	-56	-137	-176	31
146	21	-96	531	31
67	14	-348	815	31
69	-31	-148	203	31
-16	-74	270	-223	31
76	-124	428	-430	31
191	-76	1179	77	31
89	-11	1531	872	31
134	2	356	279	31
127	-12	-655	-144	31
239	-26	-1110	-29	31
146	1	-909	-49	31
-154	19	-703	-315	31
-44	19	-29	-627	31
22	29	436	-32	31
21	42	-180	189	31
154	37	197	-114	31
22	2	586	-280	31
-95	-16	1344	32	31
-79	-7	1621	224	31
-192	9	507	162	31
-123	-2	-891	107	31
32	-6	-2323	-76	31
63	76	-2040	152	31
124	152	-78	128	31
149	137	546	-52	31
186	23	-6	-128	31
1	-184	324	-52	31
-156	-205	457	-35	31
42	245	606	-258	31
20	671	440	-359	31
-116	562	-109	-290	31
-175	86	271	-72	31
-122	-518	686	265	31
-93	-483	901	508	31
-76	-80	776	242	31
88	-221	33	73	31
-91	-456	-730	79	31
-121	-581	-1114	32	31
3	-298	-1014	117	31
9	11	-620	-46	31
109	6	140	1	31
111	94	813	276	31
151	51	862	91	31
132	74	435	-203	31
87	90	-240	-147	31
37	87	-266	9	31
24	113	175	-118	31
-18	82	971	-156	31
-78	147	1649	151	31
-59	247	300	523	31
-79	310	-2405	755	31
-42	165	-2835	367	31
-77	2	-1045	-131	31
-105	-96	-11	-176	31
-101	-150	227	-492	31
-66	-101	423	-638	31
79	-28	654	-435	31
51	37	676	-327	31
10	9	294	-54	31
42	32	-393	-38	31
57	47	-692	-257	31
196	24	-329	-119	31
91	27	240	63	31
-61	5	1394	-6	31
-32	14	1922	-114	31
-119	6	1335	-290	31
-115	21	297	-10	31
-109	37	-1493	357	31
-125	40	-2241	280	31
-79	41	-1471	225	31
-35	7	-192	76	31
-21	4	380	71	31
-49	0	248	314	31
-11	-2	468	414	31
4	-4	621	293	31
-35	-18	1265	124	31
-52	19	683	160	31
-79	112	-738	313	31
-52	122	-803	-47	31
7	27	-392	-501	31
82	-43	-126	-364	31
164	-112	-305	-232	31
113	-112	-186	-358	31
58	-57	-149	-148	31
56	-13	404	241	31
-36	106	1370	180	31
-175	249	674	520	31
-77	276	-596	684	31
77	145	-909	-113	31
74	-101	-563	-628	31
57	-385	-231	-344	31
56	-362	100	-202	31
201	-118	52	-258	31
19	-45	161	74	31
-174	-34	64	44	31
6	7	-521	-265	31
97	23	-442	-412	31
101	27	57	-171	31
37	26	438	-1	31
31	-6	372	16	31
-156	-59	309	74	31
-89	-44	498	-88	31
163	55	1569	-44	31
56	132	1912	191	31
-23	152	-164	455	31
-86	35	-1564	242	31
-2	-194	-1029	-61	31
11	-148	-704	23	31
120	122	-1277	290	31
141	371	-827	470	31
-17	578	134	133	31
117	663	761	-49	31
-1	710	984	-113	31
19	360	-39	-202	31
22	-490	-857	26	31
-54	-1126	-377	99	31
-147	-1224	1300	131	31
-353	-676	2228	-7	31
-163	-46	601	-59	31
-71	252	-1518	270	31
-25	387	-1694	209	31
47	230	-593	50	31
-61	-66	-415	-31	31
24	-328	-807	-105	31
220	-313	144	-196	31
179	-158	779	-268	31
12	-99	976	-237	31
-118	42	898	-201	31
-60	119	354	-14	31
-29	140	-111	112	31
-65	165	-393	199	31
84	144	-6	187	31
39	106	287	0	31
-87	43	641	-117	31
-102	50	551	-116	31
-76	70	-59	-14	31
-31	76	-395	132	31
-69	92	-470	199	31
-14	94	-389	117	31
31	116	-430	-44	31
64	137	-390	-89	31
110	167	-299	-29	31
121	131	25	-131	31
169	5	249	-107	31
141	-74	114	-34	31
114	-89	180	-74	31
57	-29	88	-28	31
-39	87	111	-57	31
-24	64	130	-34	31
-45	-21	-56	-37	31
-118	-91	83	-58	31
-101	-111	127	-57	31
-90	-52	-34	-14	31
-62	-43	-175	122	31
21	-11	-254	81	31
-33	-23	251	-22	31
-32	1	964	217	31
106	40	530	311	31
18	-24	92	113	31
122	-51	51	361	31
377	-49	-348	493	31
-3	129	-738	36	31
-29	774	-1263	-236	31
131	1479	-1321	-7	31
-126	1236	-310	-532	31
2	245	1283	-1009	31
-109	-938	1621	-291	31
-135	-1682	558	141	31
-39	-1207	-770	427	31
-6	-489	-816	395	31
25	348	-131	-41	31
-195	1086	-207	-208	31
64	732	-548	-169	31
127	-132	-775	31	31
17	-1069	-80	-57	31
117	-1376	347	-139	31
22	-931	513	-58	31
107	-306	735	-52	31
56	112	273	-62	31
-1	54	-272	-100	31
5	9	-513	6	31
-114	-81	4	131	31
7	-101	658	181	31
23	34	910	329	31
-123	66	625	432	31
-284	126	184	327	31
-172	170	-32	81	31
240	216	-204	-118	31
248	229	-92	-94	31
-183	255	406	27	31
-224	328	583	0	31
30	361	-275	46	31
152	376	-975	165	31
200	381	-1044	267	31
-22	359	-54	535	31
-151	268	970	260	31
22	157	546	-712	31
222	69	-139	-1086	31
140	37	-691	-648	31
-200	66	-856	-91	31
-106	94	-1386	720	31
72	32	-1055	779	31
-146	-57	220	-162	31
-59	-72	150	-302	31
-14	-81	703	-132	31
-91	-87	846	-101	31
52	-83	345	-28	31
87	-54	505	-147	31
9	-71	240	-77	31
-7	-107	329	-24	31
77	-83	189	109	31
74	-84	175	80	31
71	-77	242	-11	31
70	-68	187	52	31
-101	-72	281	11	31
-155	-90	239	7	31
-72	-135	240	-36	31
-167	-150	51	4	31
-132	-116	74	40	31
-82	-80	345	-66	31
-142	-80	585	-166	31
-21	-36	-108	-44	31
-28	87	-1588	237	31
33	214	-2007	414	31
99	253	-927	298	31
114	231	11	34	31
191	147	54	29	31
104	-67	46	31	31
31	-178	-310	-64	31
-120	-113	-169	-91	31
-14	-46	887	-63	31
259	110	1270	-16	31
-128	204	480	-24	31
-293	14	-378	-9	31
-77	-295	-49	-124	31
-84	-539	711	-169	31
14	-353	1066	-67	31
-62	6	480	-75	31
38	21	-458	-123	31
227	-2	-532	-215	31
236	238	176	-91	31
134	670	560	252	31
81	667	17	515	31
127	126	-190	435	31
36	-343	-378	364	31
210	-287	-922	229	31
-65	175	-999	-275	31
-488	573	-9	-264	31
-888	681	61	-310	31
-1244	240	-1751	-470	31
-233	68	-1907	-169	31
695	-79	-432	-99	31
781	-393	635	334	31
562	-89	1344	477	31
31	-51	1373	-157	31
79	200	1209	-126	31
454	343	1367	-68	31
361	-52	1350	-214	31
127	-389	328	19	31
247	-1088	-632	63	31
225	-1353	-463	26	31
157	-1071	-247	72	31
194	-361	-621	62	31
-62	27	-888	-31	31
-400	-116	-463	-2	31
-417	63	-146	25	31
-56	19	-62	-46	31
-186	84	230	-121	31
-257	160	483	-136	31
-260	154	576	-103	31
-159	237	415	-66	31
238	189	57	184	31
23	249	-496	545	31
62	320	-639	597	31
-31	544	119	173	31
-34	601	1123	-49	31
365	393	1672	-238	31
129	209	347	-272	31
27	146	-1990	-22	31
152	362	-2520	-226	31
-7	308	-1459	-117	31
-164	-192	-985	-98	31
-161	-629	-837	-275	31
-147	-464	304	-193	31
-46	337	1138	-196	31
-127	1138	1280	-37	31
-359	1277	1156	71	31
-161	681	1040	285	31
209	-468	769	414	31
254	-1615	-29	74	31
16	-1960	-285	-149	31
34	-1366	87	-123	31
17	-262	488	-180	31
182	384	429	-136	31
397	601	163	15	31
131	372	376	176	31
-40	-96	405	76	31
-213	-247	-213	66	31
-176	-365	-728	332	31
2	-94	-423	405	31
144	253	509	803	31
22	300	-566	450	31
-162	193	-2644	-208	31
-80	229	-1925	144	31
-91	467	-375	200	31
124	645	21	49	31
70	806	239	-359	31
-43	538	631	-516	31
-21	20	583	-217	31
-57	-461	227	-176	31
29	-792	358	119	31
-169	-632	699	-131	31
-108	-298	330	-388	31
72	39	269	-184	31
-87	568	852	-170	31
-203	1082	652	-36	31
-147	1016	-115	-94	31
-86	404	-386	-113	31
-94	-490	-7	-1	31
41	-889	448	11	31
116	-485	372	42	31
51	-237	-81	44	31
45	-200	-156	19	31
277	-476	-42	-109	31
77	-692	-67	-314	31
-347	-322	189	-397	31
-32	-139	988	-227	31
79	-104	861	154	31
117	65	-333	471	31
176	225	-1280	417	31
82	711	-1456	182	31
271	1175	-884	252	31
-16	885	-759	354	31
-682	-2	-136	365	31
-542	-892	484	328	31
202	-1239	182	140	31
259	-902	266	61	31
309	-357	556	-103	31
-56	-98	669	-230	31
-337	304	516	-186	31
340	870	548	-97	31
221	925	9	-106	31
192	679	-1205	-186	31
235	222	-1450	-67	31
16	-170	-317	95	31
26	-209	474	131	31
-377	-406	437	163	31
-516	-455	378	102	31
-47	-252	41	-171	31
229	-107	85	-267	31
121	174	-16	-107	31
1	343	-214	-106	31
69	205	-327	-167	31
188	-93	59	-174	31
57	-395	954	-231	31
243	-275	1152	-219	31
274	117	1011	-215	31
-72	174	523	-115	31
-27	111	415	-47	31
187	-34	-73	-67	31
359	-265	-821	27	31
72	-275	-976	199	31
-270	-248	-1103	382	31
10	-51	-859	533	31
82	312	-648	446	31
-114	766	357	97	31
-70	881	767	30	31
-15	388	-124	73	31
-128	-107	-430	87	31
-304	-298	-209	227	31
-81	-73	408	27	31
31	320	636	-336	31
7	727	831	-209	31
224	586	-52	305	31
385	-105	-1646	375	31
2	-810	-1202	-159	31
-600	-1146	-42	-210	31
-198	-696	275	312	31
197	-377	60	166	31
36	-240	174	-440	31
97	-133	-17	-505	31
47	-184	-49	-345	31
-55	-64	453	-305	31
-56	5	170	-156	31
27	167	-210	19	31
48	291	137	219	31
-13	291	862	292	31
-16	337	889	143	31
-156	528	240	92	31
-117	759	-376	-35	31
93	589	-347	-209	31
56	42	-66	-172	31
35	-697	-192	67	31
49	-944	-239	337	31
99	-478	61	62	31
142	105	207	-176	31
2	393	14	58	31
-78	308	315	-102	31
-54	232	846	-337	31
-145	3	1053	-111	31
-170	-135	179	303	31
-154	-146	-1234	552	31
51	-242	-1278	367	31
325	-121	-538	279	31
1	27	87	169	31
-177	378	187	-92	31
-156	648	36	-69	31
-194	405	-200	-259	31
204	-107	-520	-159	31
304	-668	9	3	31
-28	-650	654	-47	31
-231	-56	541	99	31
56	150	484	5	31
72	-50	305	-99	31
-199	-180	-285	-196	31
-26	-6	-494	-172	31
-59	388	-467	106	31
-79	533	-442	124	31
-10	641	-355	-114	31
104	217	-65	-269	31
-77	-640	785	-184	31
-370	-1096	1426	91	31
50	-1086	1153	99	31
155	-544	652	-225	31
21	-305	101	-240	31
97	-311	-1041	179	31
-61	-222	-2214	801	31
97	36	-1786	607	31
323	423	-550	-329	31
192	520	289	-214	31
-61	787	609	65	31
-17	856	259	-2	31
-60	634	749	-5	31
-288	387	945	-184	31
-179	252	271	-139	31
-87	734	187	-228	31
101	947	124	-100	31
57	239	-54	74	31
-52	-697	-195	217	31
-18	-1347	-64	227	31
15	-1178	328	-66	31
131	-484	663	-62	31
184	-222	356	-124	31
159	-102	-139	-74	31
-96	34	-438	-60	31
5	37	-718	-127	31
49	107	-620	-113	31
24	93	-587	-218	31
129	55	-130	-159	31
-362	85	385	101	31
-236	111	812	377	31
246	229	1298	498	31
184	466	714	472	31
100	528	-259	188	31
-179	310	-1268	-79	31
-25	-12	-1453	-161	31
372	-360	-676	-104	31
255	-271	212	-57	31
6	96	841	-111	31
-309	121	495	-30	31
-122	-49	121	-60	31
285	-302	247	364	31
-96	-559	536	668	31
-199	-520	693	-89	31
98	-187	355	-283	31
17	189	-510	-159	31
96	525	-1090	-465	31
-80	684	-869	-268	31
-146	463	-533	-96	31
262	31	-178	-54	31
292	-112	197	-6	31
42	261	202	-152	31
-340	466	34	-76	31
-222	415	-400	76	31
252	219	-507	109	31
336	-147	49	34	31
-131	-21	350	-214	31
-265	-167	186	-349	31
141	-449	114	149	31
92	-152	443	464	31
81	131	295	210	31
-107	569	-89	460	31
-200	446	679	498	31
-47	-350	1885	149	31
-22	-931	1182	33	31
21	-1180	-610	-316	31
-69	-859	-1708	-466	31
123	-521	-1143	-314	31
10	-373	541	-176	31
-34	-90	-300	69	31
192	31	-1163	357	31
14	79	-418	273	31
67	134	57	-159	31
39	177	231	-242	31
-54	254	-16	-109	31
84	244	173	71	31
50	237	544	127	31
-90	199	992	-349	31
-230	194	596	-285	31
-153	363	-69	199	31
217	413	-400	96	31
176	245	-1108	58	31
-34	-110	-1166	105	31
-287	-410	398	-51	31
-472	-282	1009	-29	31
61	-96	-190	40	31
117	-55	252	154	31
56	94	1224	367	31
223	209	1338	449	31
40	262	1060	331	31
136	273	141	67	31
80	219	-923	4	31
-9	163	-1711	46	31
84	67	-1870	-374	31
-38	56	-918	-633	31
-115	199	300	-409	31
-129	247	467	-99	31
-405	-71	340	11	31
-334	-476	83	-99	31
24	-694	28	266	31
-4	-496	379	409	31
119	-92	857	-182	31
78	90	1203	-307	31
-79	413	379	43	31
108	648	-1003	64	31
192	534	-1535	192	31
236	245	-943	1	31
209	-348	-529	-148	31
-23	-578	-555	251	31
-99	-176	-654	204	31
-31	-113	142	-24	31
-54	-92	1676	-264	31
-57	121	989	-267	31
-49	43	227	-135	31
-167	189	195	-134	31
-207	418	-34	-36	31
-53	362	-9	-47	31
-95	245	-304	104	31
-52	6	-76	261	31
118	-288	31	127	31
-59	-292	486	-18	31
-133	-333	1198	-23	31
135	-405	1563	-178	31
129	-377	1022	-197	31
13	-134	-272	255	31
143	518	-949	507	31
54	470	-1245	588	31
91	-117	-898	197	31
-4	-559	-344	-432	31
-247	-667	430	-308	31
-173	-347	759	-134	31
-164	-51	45	-53	31
61	163	-698	17	31
245	193	-1113	-32	31
302	147	-637	-52	31
241	127	-322	37	31
-50	74	-182	334	31
-270	49	126	106	31
-101	15	123	-24	31
199	37	378	47	31
-7	48	4	-99	31
115	-23	-1075	-63	31
183	-93	-720	-197	31
-217	-74	1514	-118	31
-269	-32	2321	-52	31
-17	72	1328	-56	31
152	404	98	370	31
-51	677	-924	466	31
-49	621	-778	197	31
3	236	-854	206	31
-51	-169	-907	167	31
12	-290	-414	-255	31
88	-215	-107	-620	31
84	7	131	-577	31
103	250	190	-429	31
240	554	650	-214	31
-107	581	743	330	31
-114	17	230	697	31
129	-529	116	302	31
4	-767	110	-76	31
66	-609	32	-19	31
14	-372	203	-199	31
1	-285	244	-128	31
-27	-160	-80	-79	31
-97	-267	53	-294	31
91	-355	755	-361	31
43	-303	954	-139	31
-147	-224	661	250	31
12	29	-241	313	31
160	346	-1462	407	31
-74	722	-1763	164	31
-243	906	-1383	-175	31
34	691	333	-92	31
128	419	942	170	31
92	316	-831	600	31
255	220	-1833	480	31
-151	163	-1216	38	31
-226	74	455	-77	31
167	-205	811	-474	31
52	-340	1062	-660	31
-8	-344	1215	-172	31
-87	-380	627	-107	31
-3	-546	478	-112	31
225	-592	-13	329	31
41	-284	-84	489	31
-204	-124	-376	184	31
-31	-42	-937	-245	31
161	4	-970	-202	31
64	7	137	-162	31
34	154	1297	-160	31
-116	350	1186	52	31
-93	527	393	2	31
-74	559	-66	-76	31
-170	451	86	8	31
39	114	175	61	31
32	-115	604	38	31
-136	-293	300	2	31
-152	-480	-352	-59	31
-139	-247	-952	242	31
-206	35	-1340	510	31
-83	326	-852	169	31
77	214	-315	-282	31
77	-175	746	-317	31
339	-297	1268	-113	31
396	-332	568	12	31
148	-61	-82	207	31
-92	202	-157	194	31
-47	308	155	19	31
-31	227	164	20	31
-110	60	217	-4	31
17	-161	367	-50	31
-157	-460	-281	-72	31
-100	-624	-968	-204	31
227	-520	-903	-360	31
151	117	207	-187	31
-163	439	882	-21	31
-95	340	202	-64	31
-155	318	-132	260	31
-222	245	-375	552	31
315	138	-613	292	31
65	27	-790	236	31
-81	112	-833	234	31
284	354	215	-288	31
131	634	829	-353	31
84	377	429	-418	31
52	-244	-17	-513	31
-149	-641	-62	-283	31
-383	-726	483	-141	31
-19	-447	991	99	31
114	-552	803	-31	31
-142	-612	308	307	31
-96	-329	146	740	31
-134	91	-305	462	31
247	445	-794	199	31
205	295	-1104	67	31
-87	355	-603	-111	31
61	348	725	-190	31
74	179	941	-16	31
224	82	96	52	31
253	2	-853	251	31
137	110	-1227	352	31
-13	119	-993	227	31
-187	193	-438	-26	31
-97	261	-9	-294	31
-86	140	106	-158	31
-120	-66	418	-126	31
46	-435	588	-364	31
142	-775	632	-345	31
-1	-520	632	-234	31
-101	21	370	-360	31
-27	357	367	-199	31
-123	546	915	289	31
40	495	940	433	31
247	245	267	-66	31
-167	-131	-255	-74	31
-381	-240	-621	516	31
-14	-143	-693	370	31
365	-120	-591	-22	31
162	36	-551	-240	31
-66	194	-385	-390	31
8	483	-226	-414	31
11	870	564	-316	31
59	777	856	182	31
43	209	-537	483	31
76	-594	-1147	32	31
-27	-1140	-477	-56	31
-174	-839	161	142	31
-199	-335	106	319	31
-199	-121	390	531	31
-131	67	383	239	31
-161	157	-80	181	31
18	232	-24	97	31
270	189	-279	-169	31
200	-184	-128	-352	31
109	-363	299	-436	31
166	-279	440	24	31
37	-149	349	104	31
-119	318	421	-132	31
-212	626	437	12	31
-86	407	-17	117	31
115	4	-229	-68	31
20	-267	301	-502	31
-56	-241	437	-305	31
-46	4	-457	112	31
49	344	-420	-121	31
113	726	319	-50	31
84	1115	213	124	31
-144	980	-630	159	31
-44	-51	-1353	387	31
279	-1160	-550	272	31
244	-1526	654	66	31
124	-1138	645	7	31
39	-546	380	-25	31
-14	-131	-107	-38	31
-154	54	-144	-26	31
-165	-11	270	27	31
-120	-16	413	-94	31
-89	-71	118	-202	31
-124	-86	-605	-184	31
-67	52	-529	-120	31
2	260	-45	62	31
36	623	161	329	31
129	643	96	292	31
29	345	39	-42	31
116	51	114	-101	31
-107	-170	220	-132	31
-153	-164	341	19	31
258	-293	444	152	31
189	-426	480	-4	31
79	-180	262	18	31
-159	124	-68	-63	31
-237	218	-477	9	31
-59	151	-439	34	31
-284	69	79	-155	31
-191	-27	412	-76	31
107	75	109	106	31
-61	481	-610	148	31
73	751	-1248	-22	31
113	804	-824	-241	31
-149	604	235	-260	31
37	51	223	-231	31
71	-374	-41	-85	31
121	-589	93	9	31
246	-501	338	-130	31
260	-16	38	147	31
154	13	-282	400	31
-51	-138	590	87	31
-174	27	1212	-355	31
-294	11	810	-260	31
-35	-40	252	167	31
-32	-241	-143	518	31
-183	-511	-521	870	31
-103	-320	-1078	259	31
39	-30	-699	-341	31
419	140	101	-2	31
266	126	-19	9	31
16	-35	-122	54	31
28	-66	-22	80	31
21	-170	-148	224	31
131	-109	-387	201	31
-4	144	-262	-156	31
-16	645	-110	-161	31
49	1339	146	-380	31
-27	1170	679	-265	31
-57	278	763	112	31
-18	-947	498	198	31
-14	-1702	512	134	31
-34	-1284	529	72	31
-83	-717	222	-24	31
-79	-112	378	55	31
11	373	232	121	31
-134	563	-633	-372	31
-49	583	-905	-635	31
59	269	-907	-511	31
169	-188	-946	-314	31
294	-546	-703	150	31
42	-333	-350	287	31
5	12	-121	-19	31
97	81	-12	24	31
34	128	225	-20	31
-129	127	299	-111	31
-22	126	-47	-2	31
3	109	256	-11	31
-175	170	1193	136	31
-40	388	1435	96	31
-94	425	978	-54	31
-61	184	394	-81	31
-91	-112	-308	-159	31
-198	-356	-1059	-128	31
46	-242	-882	268	31
254	-44	-291	305	31
352	-112	-460	36	31
-177	-44	-345	470	31
-422	57	715	489	31
43	24	840	212	31
32	47	-500	216	31
57	98	-1145	-276	31
-39	-3	-1121	-309	31
-171	-141	-952	267	31
-27	-207	157	415	31
-32	-97	1127	181	31
15	446	1114	15	31
-143	984	833	-84	31
-167	923	482	-254	31
32	473	379	-409	31
203	-69	238	-515	31
284	-456	31	-297	31
21	-544	-114	135	31
-67	-630	-307	320	31
83	-569	-478	220	31
47	-166	-520	-167	31
9	29	-156	-370	31
1	5	126	-45	31
-53	61	226	16	31
-26	54	171	41	31
-8	68	117	44	31
-60	47	52	-106	31
-81	-71	41	-133	31
-39	-192	312	-72	31
-11	-176	477	227	31
-1	161	591	54	31
-4	438	649	-3	31
95	214	219	284	31
242	-249	-815	256	31
85	-520	-1479	162	31
-109	-152	-1377	-169	31
-81	750	-784	-201	31
-54	1226	438	-26	31
-122	1034	1095	-24	31
-206	242	1111	8	31
-149	-696	1042	-34	31
-71	-653	40	25	31
252	-285	-1341	245	31
504	-275	-1806	442	31
-289	-339	-1022	377	31
-814	-626	-110	315	31
-172	-580	837	-102	31
222	-255	1416	-488	31
278	-109	667	-384	31
238	-132	-620	-341	31
27	-76	-897	-159	31
171	165	170	34	31
132	129	86	38	31
74	12	-530	40	31
126	13	-222	-19	31
106	77	259	-244	31
92	165	413	-102	31
-173	152	304	81	31
-170	126	462	3	31
-106	77	207	51	31
-25	54	86	-24	31
-23	74	49	-7	31
-92	124	26	67	31
77	213	89	42	31
161	244	-64	36	31
133	220	-16	54	31
76	256	-136	112	31
77	252	-37	87	31
51	64	532	27	31
44	-135	948	-71	31
53	-322	594	-30	31
46	-422	-89	206	31
0	-280	-398	-89	31
-48	8	-400	-358	31
-82	369	-297	-112	31
-171	340	-72	-230	31
-53	-4	-46	-185	31
-1	-191	-47	-70	31
-41	-191	324	78	31
23	-21	442	391	31
-79	-37	204	625	31
-132	-203	-243	773	31
68	-227	-699	317	31
228	95	-879	-208	31
117	498	-437	-599	31
-169	355	197	-468	31
-102	-42	84	-140	31
54	-504	-159	209	31
-162	-713	-358	934	31
-141	-234	-856	619	31
34	333	-570	-306	31
25	651	-76	-390	31
-71	702	151	-179	31
-18	312	746	-342	31
-20	-151	542	-295	31
-82	-414	-81	-11	31
-23	-519	256	88	31
-61	-9	676	145	31
68	740	483	136	31
167	689	-111	-19	31
172	62	-476	-185	31
269	-623	-147	-284	31
200	-946	9	-266	31
-270	-691	20	-175	31
-207	-173	174	-124	31
154	198	233	-101	31
-262	222	75	-2	31
-79	355	-58	204	31
103	381	-24	382	31
-109	-8	-22	285	31
50	-275	28	94	31
-20	-362	52	20	31
46	-225	295	-67	31
97	104	440	-20	31
92	224	358	-46	31
52	194	573	-77	31
81	71	1104	-202	31
175	-105	511	-195	31
114	-65	-1004	195	31
168	142	-1400	126	31
46	174	-1282	-80	31
-21	62	-690	-159	31
13	113	-188	43	31
7	182	-320	346	31
-30	325	-152	479	31
-132	437	9	283	31
-82	207	247	-355	31
-137	-100	381	-245	31
-93	-399	425	110	31
35	-597	314	91	31
20	-480	192	25	31
157	-235	202	-9	31
96	-68	85	51	31
-138	-24	46	-3	31
7	37	-11	-76	31
174	251	39	-146	31
32	710	-57	-92	31
45	1218	-234	-15	31
-121	1073	-418	-26	31
-334	312	-119	-58	31
-145	-497	717	-54	31
-179	-845	698	-37	31
-100	-594	79	-78	31
-29	-563	-358	-109	31
-35	-777	-331	-96	31
31	-628	-8	173	31
27	-368	542	438	31
132	-62	938	257	31
34	28	841	7	31
-17	-91	450	4	31
-30	113	-198	71	31
81	352	-700	236	31
129	376	-855	336	31
1	242	-560	40	31
88	69	-512	-374	31
145	130	-561	-165	31
61	486	-387	54	31
-178	511	-162	-148	31
-111	148	-15	-298	31
20	-36	-62	-395	31
-46	-108	-67	-427	31
125	-262	-1	-347	31
67	-424	260	-11	31
76	-473	673	86	31
200	-415	764	226	31
-24	-150	54	164	31
-171	-36	-286	-239	31
17	-91	-394	-137	31
239	-133	-373	150	31
275	-185	-42	862	31
117	144	-127	955	31
-16	580	60	115	31
30	706	-31	-259	31
-194	538	100	-455	31
-190	430	626	-221	31
-98	568	408	442	31
-139	510	-192	723	31
25	147	-563	583	31
7	-263	-415	-29	31
-45	-648	-51	-703	31
-140	-700	42	-779	31
-17	-380	-34	-603	31
97	-148	-68	-460	31
132	34	184	-204	31
253	152	568	-54	31
74	298	334	122	31
-157	462	-2	238	31
-183	315	19	126	31
-7	-73	-1	169	31
-36	-460	147	314	31
-49	-533	295	197	31
54	-424	599	51	31
72	-267	680	15	31
56	108	-192	-146	31
-151	817	-805	-172	31
-123	1587	-657	-182	31
78	1601	-135	-76	31
119	321	487	321	31
40	-1553	437	379	31
44	-2197	220	129	31
75	-1353	-107	48	31
-89	-581	-501	106	31
-26	-299	-491	114	31
57	-9	-417	24	31
19	155	-132	-16	31
67	217	99	-18	31
-62	246	342	-56	31
-87	210	342	-90	31
-96	224	104	-126	31
-123	193	-75	-31	31
-21	180	-316	6	31
-24	167	-217	-81	31
-82	160	-284	-194	31
-101	250	-530	-327	31
86	465	-107	-171	31
219	647	563	384	31
105	420	628	397	31
99	-101	291	-399	31
93	-447	77	-342	31
182	-472	-137	134	31
115	-409	-342	264	31
-192	-56	-94	319	31
-150	576	107	65	31
-159	869	314	67	31
-120	702	542	47	31
5	73	310	94	31
43	-722	134	98	31
-45	-951	-40	-219	31
-362	-744	-146	-424	31
-192	-456	-6	-360	31
-41	222	-22	-164	31
-66	872	-342	-227	31
279	711	-530	-50	31
289	67	-502	392	31
184	-639	-610	511	31
155	-998	-262	291	31
20	-458	159	54	31
57	111	129	30	31
23	185	222	-18	31
-263	107	160	51	31
-181	-84	106	137	31
199	220	-245	104	31
-22	609	-631	106	31
-97	325	-91	6	31
7	-135	659	-124	31
-109	-518	1332	-220	31
-20	-341	1216	-173	31
50	301	167	20	31
175	407	-733	41	31
49	303	-974	-5	31
-16	107	-576	29	31
131	-342	-378	-252	31
-54	-486	5	-352	31
6	-323	189	-272	31
152	-6	-59	-370	31
22	124	152	-132	31
99	102	469	226	31
31	108	417	690	31
-238	52	-8	849	31
-289	95	-108	226	31
-171	192	64	-270	31
42	361	255	-219	31
-83	345	261	-120	31
-151	135	56	-77	31
72	-60	-61	-86	31
119	-296	-101	-190	31
188	-333	252	-202	31
159	-220	554	-54	31
89	52	161	257	31
135	533	-328	476	31
97	655	-468	66	31
-8	256	-407	-240	31
-82	-193	-254	176	31
-166	-426	-195	247	31
-127	-159	-297	-32	31
12	368	-379	-74	31
11	495	-297	-147	31
-96	184	-290	-169	31
-66	-246	94	-5	31
16	-257	556	123	31
39	-38	442	-61	31
97	119	511	-260	31
106	248	498	-52	31
79	663	-117	214	31
61	1088	-353	180	31
24	161	134	39	31
-4	-754	200	-36	31
31	-1176	-21	-90	31
-8	-1381	-84	-127	31
-111	-532	-472	-147	31
-47	-99	-338	-121	31
51	-175	-81	-106	31
60	-719	-423	-123	31
11	-1041	-330	-58	31
-132	-589	-12	186	31
-166	-203	302	362	31
-39	271	285	224	31
-81	282	120	111	31
-37	303	179	61	31
275	341	121	-77	31
167	298	209	-71	31
32	432	273	10	31
44	317	301	20	31
-136	360	307	-53	31
67	864	126	-177	31
128	1848	-50	-233	31
-11	1500	-86	-144	31
-219	-168	-194	78	31
-283	-1185	-447	475	31
2	-1600	-481	397	31
-41	-1083	-251	-112	31
-24	-470	127	-37	31
-81	82	382	2	31
-49	370	393	-43	31
122	-22	210	41	31
68	-80	-76	-30	31
129	-317	52	-31	31
92	-167	178	-114	31
74	129	179	-94	31
104	133	383	-66	31
151	235	403	-78	31
62	144	100	-58	31
-91	205	-615	-17	31
2	185	-836	125	31
-76	178	-608	199	31
-32	328	-519	140	31
170	684	65	97	31
-63	1003	365	111	31
-158	928	230	10	31
-41	460	24	-26	31
11	-282	-295	-57	31
62	-500	-171	-54	31
-13	-617	-5	-21	31
70	-611	-2	-168	31
153	-579	-196	-136	31
103	-965	-316	177	31
-62	-759	31	283	31
-111	-295	383	-91	31
-34	350	468	-161	31
-117	840	407	-87	31
-126	526	235	-69	31
-127	-27	68	171	31
-168	-689	56	-105	31
-105	-742	51	-149	31
47	-229	76	-12	31
51	137	56	-40	31
-51	470	53	239	31
-17	389	-94	254	31
74	12	-187	109	31
77	-250	203	-17	31
66	-306	633	-44	31
-20	-18	499	-49	31
-31	123	-49	-46	31
144	142	-546	-182	31
-7	195	-1172	-178	31
-111	175	-863	204	31
75	220	233	213	31
-12	149	753	192	31
-3	108	808	139	31
-64	112	66	41	31
-63	180	-973	-12	31
103	410	-1198	-380	31
12	393	-453	-485	31
130	65	287	-347	31
161	-309	130	-182	31
119	-418	172	32	31
124	-259	332	190	31
96	-185	230	351	31
41	-124	345	297	31
-89	-17	249	152	31
-57	44	120	32	31
-1	217	87	-46	31
19	441	87	-146	31
-46	347	89	-245	31
-64	70	-47	-107	31
-57	61	-300	126	31
-45	245	-508	232	31
51	445	-187	159	31
17	547	239	177	31
-45	318	339	212	31
-235	-156	480	104	31
-86	-550	606	31	31
275	-1224	697	24	31
173	-1497	671	-36	31
172	-799	207	-33	31
107	-282	-430	-24	31
24	17	-940	-184	31
0	91	-995	-227	31
-98	160	-442	-174	31
-62	348	-143	-157	31
-88	453	132	-177	31
-67	1206	339	-157	31
-147	1821	165	129	31
-91	1137	181	414	31
96	121	-267	226	31
1	-495	-655	-26	31
-218	-942	-284	29	31
-79	-1146	434	34	31
151	-1380	1170	135	31
-91	-956	1016	14	31
-39	-303	111	-399	31
186	-112	-547	-255	31
23	132	-976	28	31
44	92	-787	121	31
92	154	-67	284	31
-41	180	-74	172	31
-57	125	-313	34	31
-151	150	-293	-36	31
-176	67	-152	-63	31
-49	103	59	62	31
-7	84	80	33	31
-129	72	182	-11	31
-149	35	222	-45	31
69	66	235	-81	31
117	217	269	-119	31
152	501	245	-173	31
122	746	440	-164	31
51	492	595	-107	31
116	286	192	-84	31
70	273	-194	199	31
14	77	-178	615	31
-21	-405	-19	294	31
-76	-957	360	1	31
-91	-799	-24	-2	31
-13	-317	-288	-296	31
-64	-46	60	-120	31
-58	230	-249	289	31
87	503	-360	268	31
82	858	-447	-166	31
0	909	-338	-361	31
-30	312	106	-357	31
57	-728	80	-453	31
22	-1298	86	-224	31
61	-787	-37	-10	31
92	-169	69	61	31
24	-42	203	8	31
75	224	-62	-99	31
32	423	-85	-179	31
104	355	174	-214	31
106	444	392	-79	31
-71	161	24	362	31
-51	-285	9	661	31
-41	-563	657	481	31
-99	-580	719	467	31
-53	-139	246	398	31
11	134	-280	107	31
114	184	-554	19	31
136	89	-458	18	31
2	-20	-245	-87	31
-67	-53	21	-78	31
83	9	114	-41	31
141	145	112	-122	31
-15	215	222	-256	31
7	518	305	-329	31
-134	682	129	-103	31
-121	445	-151	-89	31
-4	11	-306	-129	31
-129	-534	-284	-7	31
-97	-753	-129	-48	31
-139	-475	-220	-94	31
-37	-116	-338	-11	31
-48	62	-459	142	31
22	199	-375	76	31
43	382	-277	-7	31
-41	399	-127	15	31
131	157	257	61	31
21	-94	554	182	31
60	-77	871	136	31
38	347	651	-35	31
62	601	143	55	31
151	132	-420	300	31
-2	-573	-630	341	31
-24	-813	-491	4	31
-8	-469	-606	-212	31
44	-54	-432	-144	31
66	255	-355	-7	31
-29	426	-265	259	31
-312	352	87	15	31
-136	479	462	-187	31
164	1027	813	1	31
-4	1701	989	-289	31
104	837	876	-439	31
142	-1177	421	-171	31
76	-2100	-264	-96	31
106	-1977	-640	-9	31
71	-1058	-427	60	31
131	-283	-46	23	31
6	486	207	-20	31
-180	807	230	2	31
-172	169	293	82	31
-56	-99	263	59	31
-62	-475	204	31	31
-69	-411	188	29	31
12	-228	205	150	31
-26	-238	316	162	31
13	-42	512	-32	31
66	-16	381	-123	31
42	207	-171	-122	31
-6	215	-350	-31	31
-49	245	-506	52	31
34	308	38	96	31
87	368	374	207	31
-62	744	-470	161	31
-142	1160	-998	-92	31
70	1211	-1267	-48	31
79	668	-1330	207	31
-38	-159	-996	356	31
-51	-776	-301	466	31
-159	-743	89	286	31
-174	-593	-15	-57	31
-176	-422	90	-238	31
-45	-250	494	-286	31
-61	-280	1083	-170	31
-37	-497	1044	-142	31
192	-566	491	-191	31
141	-233	349	-91	31
109	-1	97	-46	31
-21	288	126	2	31
-11	194	410	74	31
116	-41	319	212	31
-3	6	116	335	31
45	-94	-81	11	31
46	76	-99	-339	31
-69	485	133	-100	31
-81	915	206	59	31
-142	914	-124	-372	31
-139	257	-303	-469	31
-90	-444	-273	-109	31
14	-853	-133	141	31
127	-530	-105	127	31
97	132	-173	-176	31
112	230	-155	-16	31
81	99	-360	176	31
68	81	-622	-47	31
64	128	-486	176	31
4	199	-22	448	31
76	10	247	134	31
89	-249	347	-8	31
-101	-161	378	36	31
-159	-53	197	82	31
-23	267	102	171	31
-69	1248	265	-65	31
-31	1572	172	-181	31
21	338	144	-116	31
-78	-1095	-88	-21	31
-96	-1687	-525	32	31
32	-1308	317	169	31
140	-648	1183	242	31
121	-175	934	215	31
227	156	317	357	31
76	32	-443	223	31
2	-39	-1212	88	31
67	-156	-1263	-169	31
3	-81	-495	-530	31
5	192	19	-394	31
-101	186	-106	-285	31
4	291	-319	-177	31
18	255	-16	-144	31
-2	194	628	-259	31
77	180	739	-137	31
20	6	87	-153	31
17	-96	-503	-252	31
-56	9	-514	-581	31
44	120	285	-695	31
121	301	889	342	31
117	1294	481	1215	31
72	2651	-886	800	31
-16	2408	-1592	758	31
138	251	-447	883	31
28	-2200	92	620	31
-125	-3356	40	586	31
-42	-2464	531	-297	31
-151	-1043	854	-429	31
-108	67	372	424	31
34	740	-124	-242	31
-164	1034	94	-1099	31
-240	1330	670	-1049	31
-205	461	1297	-681	31
-201	-667	1235	-130	31
-52	-1207	66	226	31
17	-1188	-1123	508	31
26	-581	-1415	339	31
56	-92	-820	-419	31
64	204	262	-541	31
137	155	393	-348	31
142	273	57	-455	31
82	381	-827	-242	31
66	407	-1284	150	31
-29	461	-525	336	31
-114	272	587	228	31
-77	186	1325	272	31
-34	46	1543	518	31
9	95	856	420	31
55	156	-608	33	31
-7	88	-1421	-171	31
-38	161	-1124	-176	31
-6	114	64	-259	31
22	30	91	-144	31
146	-11	-67	16	31
164	418	106	-51	31
92	1300	-255	23	31
171	1209	119	348	31
247	131	1378	345	31
102	-438	2737	201	31
-20	-773	2120	530	31
-56	-1143	249	716	31
-106	-1090	-375	890	31
-131	-626	-1491	535	31
-179	-112	-1989	-682	31
-112	36	-852	-1407	31
-146	63	-447	-1153	31
-131	-116	-657	-469	31
173	-94	-1138	-15	31
239	134	-456	99	31
120	57	553	-128	31
114	54	844	-31	31
116	59	873	170	31
97	102	1005	-11	31
104	180	1296	-131	31
88	155	-420	-57	31
-3	187	-1335	-202	31
-111	174	-1285	-297	31
-250	122	-995	419	31
-313	78	-248	931	31
-208	111	-490	357	31
-112	196	236	104	31
-83	157	320	104	31
6	-30	-267	-102	31
35	-265	47	172	31
-6	-252	1117	-104	31
-13	-82	1900	-290	31
-8	-62	633	129	31
132	12	-575	403	31
221	347	-432	369	31
152	825	244	283	31
134	747	498	360	31
139	-76	27	545	31
-87	-846	-468	617	31
-272	-1128	-942	-124	31
-14	-661	-733	-427	31
-64	-160	844	-724	31
-297	-17	1328	-969	31
-97	62	-257	-171	31
94	66	-1350	309	31
191	155	-1554	-181	31
3	114	-633	-679	31
-58	96	277	137	31
99	31	1187	-259	31
152	-36	1571	-922	31
136	35	636	-526	31
-114	2	-34	-444	31
152	59	-530	70	31
254	132	44	334	31
-52	180	391	89	31
28	124	794	-122	31
-106	31	1298	365	31
-34	124	385	243	31
173	195	-1024	560	31
-41	196	-2524	1404	31
-134	121	-1495	1775	31
-167	-32	-110	1354	31
-196	-192	529	-773	31
-26	-211	1080	-839	31
144	-41	193	-582	31
107	150	-155	-917	31
53	204	61	-678	31
128	235	483	-757	31
-1	267	84	-398	31
-245	77	149	-186	31
-221	-271	370	327	31
-76	-481	-411	578	31
-31	-149	-775	479	31
57	428	-1109	89	31
61	679	-335	-284	31
-190	405	165	-73	31
-303	-230	699	279	31
-269	-785	1460	597	31
-181	-1002	715	127	31
7	-672	-370	-591	31
62	-189	-1097	-588	31
-9	63	-490	-107	31
29	100	728	602	31
107	116	889	685	31
92	109	153	447	31
220	-49	-482	199	31
402	-120	-820	-451	31
448	-142	-1170	-326	31
332	-32	-149	270	31
213	159	804	511	31
191	266	272	791	31
-3	270	-448	239	31
-268	210	-268	-659	31
-201	259	300	-884	31
-134	298	86	-1196	31
-354	497	407	-768	31
-235	792	460	-415	31
21	692	420	-335	31
75	168	1202	76	31
146	-520	2196	355	31
163	-946	1956	1009	31
165	-784	-529	787	31
86	-410	-2622	460	31
-1	-135	-2137	441	31
-49	26	-582	199	31
-82	9	-511	70	31
-121	36	-1178	-513	31
-165	57	-1348	-124	31
-44	82	-257	-305	31
-156	96	1045	-1296	31
-307	24	1094	-86	31
-208	-2	804	708	31
-69	-51	517	324	31
-118	-72	482	214	31
-338	-46	38	65	31
-218	37	-105	-1	31
-24	61	-227	-642	31
175	-1	-127	-936	31
315	19	165	-492	31
247	9	-678	17	31
242	14	-566	387	31
289	38	-178	895	31
320	61	-280	1281	31
172	114	134	205	31
86	204	383	-399	31
40	272	9	-242	31
-234	104	-214	-67	31
-274	-122	-141	-91	31
-149	-262	855	-325	31
-151	-288	1925	309	31
-39	-212	870	295	31
39	-141	-348	26	31
81	-77	-1335	26	31
100	-52	-1663	-124	31
62	55	-768	-42	31
-24	319	-132	-129	31
-217	609	99	-450	31
-204	456	447	-532	31
-149	-77	796	437	31
-355	-411	316	1121	31
-252	-413	403	217	31
-33	-141	435	4	31
-41	-12	114	70	31
184	-29	353	-564	31
305	10	822	-735	31
264	34	963	-881	31
270	54	384	-397	31
293	12	-478	360	31
106	15	-1356	806	31
-74	54	-1140	1109	31
55	69	-751	751	31
33	48	-368	-100	31
30	-8	499	-540	31
-85	-37	255	-39	31
-212	-72	-429	19	31
-98	-83	146	-364	31
-118	-62	388	-342	31
-210	39	-598	126	31
-195	164	-769	585	31
-109	153	46	-370	31
-67	72	656	-1208	31
121	66	721	-102	31
352	66	508	861	31
431	0	664	107	31
342	-8	623	-197	31
151	10	234	80	31
89	-17	2	34	31
44	-52	-312	523	31
19	-39	-829	808	31
27	11	-1040	158	31
-19	2	-678	-244	31
-82	-17	-738	-107	31
-119	4	-477	-428	31
-151	30	280	-117	31
-110	39	553	124	31
-39	218	535	75	31
-36	539	239	170	31
-67	520	408	46	31
-27	91	577	-132	31
82	-527	415	-375	31
69	-902	6	-136	31
104	-539	-159	-61	31
82	-112	500	59	31
57	-92	1049	195	31
143	-36	975	84	31
86	12	-72	-297	31
22	34	-1701	-337	31
18	96	-2508	-70	31
-36	83	-2053	-270	31
-89	90	-704	-150	31
-91	73	1307	-314	31
-105	36	1246	-387	31
-33	32	-73	-154	31
49	10	-342	219	31
1	24	-21	470	31
-11	21	343	188	31
61	1	594	322	31
-79	4	742	250	31
-189	3	24	21	31
99	40	335	39	31
220	204	809	102	31
76	511	499	-3	31
-21	682	541	-202	31
-112	504	417	72	31
-56	-32	190	404	31
-3	-561	-493	424	31
-131	-711	-593	300	31
-151	-734	-282	244	31
-212	-395	-1499	101	31
-395	12	-1766	124	31
-290	9	98	-39	31
-139	105	887	-394	31
-2	123	262	-97	31
173	41	-59	-52	31
121	37	479	-107	31
350	35	520	124	31
743	77	64	191	31
565	50	165	-119	31
459	57	353	-521	31
384	66	433	-538	31
96	44	134	-498	31
146	32	-332	-474	31
-44	21	-571	-784	31
-147	30	-315	-786	31
-7	17	408	-209	31
-57	44	874	687	31
-347	42	364	1499	31
-460	6	-523	1223	31
-102	-7	-1072	499	31
-90	-11	-944	-169	31
-37	9	-593	-449	31
-55	10	-555	-407	31
-168	31	7	-791	31
-15	27	122	234	31
-11	4	-425	1419	31
32	32	-141	948	31
-6	35	784	240	31
-33	37	1512	-790	31
-60	36	2007	-790	31
-102	-2	2233	-285	31
-26	-6	1243	7	31
-27	12	-1316	464	31
-73	-9	-2522	-187	31
-84	-41	-1326	-525	31
-29	37	-1135	-82	31
-99	280	-1548	364	31
-55	453	-649	635	31
37	262	235	281	31
46	-159	487	-307	31
158	-534	475	-444	31
82	-516	394	30	31
9	-176	223	-66	31
42	-47	199	-377	31
-6	-3	334	47	31
-67	18	488	-63	31
17	-9	278	-199	31
91	11	-161	44	31
-55	-5	-92	-59	31
-197	27	438	-17	31
-147	111	878	-131	31
11	288	952	-155	31
-97	410	852	-182	31
-128	417	200	-29	31
11	346	-937	593	31
-32	-78	-962	781	31
92	-470	-95	304	31
102	-663	97	-37	31
46	-877	-138	66	31
218	-471	-697	2	31
82	23	-683	-161	31
36	180	-212	-192	31
112	598	76	11	31
44	664	563	-114	31
7	365	740	-319	31
-137	8	-114	224	31
-71	-365	-992	304	31
-13	-325	-26	-131	31
-32	-121	578	122	31
4	-126	-336	270	31
-13	-208	-1015	143	31
18	-147	-1151	-36	31
92	-88	98	-440	31
96	-49	825	-343	31
48	16	37	-100	31
79	19	-363	-46	31
62	61	-673	7	31
58	86	-343	9	31
-10	117	842	109	31
-34	134	1138	134	31
-31	101	782	76	31
-130	104	497	39	31
-129	97	400	-12	31
54	98	522	-58	31
-57	119	384	-93	31
-144	140	290	-114	31
46	130	312	-41	31
-69	94	620	35	31
-1	81	921	24	31
46	65	163	73	31
101	47	-1297	-25	31
163	21	-1845	-99	31
-23	-9	-988	-26	31
-15	-59	-512	-96	31
-18	-197	-410	-129	31
176	-383	17	-136	31
162	-395	183	127	31
-89	-269	71	640	31
-35	-187	102	808	31
-86	-40	759	458	31
-72	255	870	12	31
-60	636	46	-167	31
-27	837	-528	-601	31
111	691	107	-780	31
19	310	382	-374	31
-70	118	-514	-55	31
14	273	-904	262	31
-27	460	-909	303	31
-29	609	-34	152	31
64	317	958	132	31
21	-126	909	37	31
12	-199	1028	-82	31
37	-644	1390	-157	31
6	-1506	354	-89	31
-256	-1719	-1362	217	31
-188	-1021	-1330	304	31
27	-416	-452	47	31
-123	-87	-37	-132	31
134	335	-253	-209	31
184	481	-542	-40	31
-87	434	-407	9	31
5	208	-120	-163	31
41	-167	-93	-179	31
189	-289	-27	-332	31
124	-247	360	-262	31
-56	-52	782	-145	31
-94	152	1423	-282	31
55	178	878	4	31
262	114	-606	426	31
-19	14	-1069	216	31
-85	22	-523	143	31
-97	51	-317	264	31
46	107	-1075	169	31
30	133	-686	382	31
-296	126	168	463	31
-156	143	200	347	31
15	90	181	46	31
138	133	-373	-230	31
236	203	-256	-147	31
86	219	-92	-16	31
-117	178	146	64	31
110	234	879	-14	31
122	384	916	-77	31
-162	347	823	-152	31
-114	288	539	-250	31
29	46	475	-270	31
72	-342	511	-166	31
-154	-369	718	-79	31
-16	179	886	-143	31
234	767	808	-90	31
-179	458	199	-97	31
-200	-440	-1165	-173	31
-49	-1211	-1479	-164	31
-101	-1223	-679	41	31
-26	-520	187	362	31
59	-76	-51	617	31
215	32	-501	700	31
204	330	234	80	31
182	764	125	-430	31
40	729	-1140	-177	31
43	647	-1187	-56	31
-99	688	-49	148	31
-216	484	740	115	31
256	217	621	-82	31
100	-350	246	-2	31
-503	-731	-442	-57	31
-415	-798	-850	-72	31
78	-529	-350	-203	31
89	-364	-340	-121	31
-10	-811	-119	-17	31
57	-757	111	-24	31
52	-581	516	-27	31
63	-396	966	-109	31
96	-97	391	121	31
205	55	-320	301	31
-50	258	53	242	31
-294	360	809	54	31
12	621	250	-80	31
327	910	291	-126	31
228	1291	724	-192	31
-61	1484	377	-134	31
-52	1326	-152	-51	31
-4	604	-680	-27	31
36	-572	-1120	-80	31
22	-1308	-1032	226	31
-173	-1608	86	546	31
-41	-1180	630	149	31
129	-425	1060	-61	31
107	19	1194	241	31
-120	-85	312	379	31
-28	-234	-541	289	31
210	-98	-989	-124	31
78	-119	-1042	-641	31
277	129	-1086	-883	31
51	197	-694	-434	31
-282	200	174	244	31
-149	376	1087	326	31
-225	320	1377	254	31
-25	367	937	82	31
144	1128	-167	64	31
89	2438	-1202	149	31
-29	2485	-790	-21	31
-287	761	54	89	31
-176	-1664	27	158	31
-3	-3231	-193	-92	31
-85	-2895	19	-437	31
207	-1580	942	-506	31
359	-337	1110	-398	31
-1	136	-463	-119	31
156	120	-1345	464	31
138	415	-990	543	31
-109	1171	118	260	31
50	1880	1037	-2	31
-27	1049	588	-86	31
-8	-501	74	-132	31
-36	-1481	152	-116	31
-172	-1670	398	26	31
-89	-994	729	-4	31
-109	-697	270	165	31
-12	-211	-383	115	31
81	323	-841	-41	31
-109	533	-1294	57	31
-31	1010	-1383	47	31
91	1293	-1649	-51	31
87	1635	-87	-119	31
-107	1341	1573	487	31
-461	460	1026	571	31
-20	-371	423	-62	31
162	-951	600	80	31
8	-895	1695	-164	31
240	-470	1360	-339	31
36	-35	-113	418	31
-149	60	-1345	523	31
-84	530	-1834	-270	31
-39	914	-661	-768	31
7	514	-116	-680	31
64	-21	-235	-254	31
127	-483	-111	-102	31
278	-101	149	-231	31
295	1491	437	-90	31
-292	2458	306	-109	31
-288	832	252	-67	31
169	-1951	362	-28	31
43	-3562	572	9	31
0	-2957	561	176	31
-202	-1120	522	196	31
-178	154	313	251	31
66	920	-382	233	31
54	802	-811	220	31
150	523	-479	249	31
62	481	116	237	31
-67	394	-28	94	31
-42	541	-446	-110	31
126	14	-525	-172	31
-69	-864	-219	-73	31
-170	-1007	458	4	31
52	-546	816	-184	31
277	-271	520	98	31
285	-66	22	552	31
-59	227	18	196	31
-191	390	-133	-56	31
-95	510	-360	175	31
42	370	-257	79	31
-202	87	-343	-259	31
81	-34	92	-219	31
332	59	182	-120	31
-131	77	294	51	31
-55	23	784	278	31
56	94	293	345	31
-5	157	-222	357	31
69	342	-400	-262	31
10	664	-181	-728	31
-67	866	114	-407	31
16	573	-127	-70	31
91	-69	-802	264	31
133	-596	-718	170	31
64	-1111	-8	-310	31
-59	-1039	392	-375	31
-39	-292	729	-232	31
-124	435	292	4	31
-117	1250	-247	139	31
-147	1396	-269	52	31
-314	628	-187	114	31
-259	-359	-185	-134	31
-167	-889	-109	-394	31
-2	-531	183	-260	31
377	-122	752	-96	31
236	-184	821	234	31
1	-503	558	431	31
370	-399	218	348	31
221	-64	-527	500	31
177	128	-664	432	31
307	188	-529	32	31
-40	-36	-500	114	31
-43	92	-438	-269	31
101	210	-203	-416	31
155	127	-627	-207	31
-32	42	-193	-51	31
-294	-105	743	750	31
-108	-1	441	520	31
34	71	628	-24	31
-65	24	417	-289	31
-27	-144	-154	-535	31
-128	-252	-170	-254	31
-212	-132	-412	307	31
-36	87	-887	359	31
117	257	-203	-129	31
97	302	623	-132	31
-49	589	335	-189	31
-111	696	-192	-324	31
-66	275	-383	-576	31
-114	-56	565	-543	31
-93	-411	960	412	31
34	-656	755	958	31
-175	-315	701	473	31
-49	-73	54	199	31
223	2	-769	-152	31
-249	120	-939	-550	31
-233	102	-719	5	31
85	127	-412	340	31
156	119	252	198	31
158	112	638	-169	31
-90	271	1704	-202	31
213	273	2286	-107	31
237	-37	388	-146	31
58	-275	-1616	-11	31
69	-370	-1187	-97	31
-84	-234	-44	106	31
101	-11	-503	453	31
17	-111	-1727	454	31
-174	-90	-1534	-77	31
-90	202	-27	-299	31
132	185	348	-194	31
164	-325	79	-361	31
-90	-686	-7	-254	31
-289	-409	50	81	31
-263	111	498	391	31
-22	323	350	339	31
112	122	217	21	31
213	-214	227	-208	31
99	-317	8	-450	31
9	36	46	-625	31
147	417	257	-256	31
81	558	447	84	31
19	558	532	-134	31
-234	224	-2	154	31
-389	-97	-501	720	31
-51	-394	-237	685	31
-123	-768	-142	288	31
-59	-594	89	-1	31
140	-162	242	-42	31
0	14	225	-324	31
134	482	891	-456	31
129	1648	927	-141	31
44	2037	-407	280	31
-11	688	-1166	563	31
-87	-679	-425	455	31
-50	-1409	189	80	31
34	-1335	-56	-167	31
305	-953	7	-84	31
399	-821	400	-132	31
195	-468	902	-470	31
-23	-581	959	-422	31
-195	-245	154	-233	31
-389	84	-532	-107	31
-287	33	-982	145	31
-21	226	-1148	311	31
51	122	-1221	640	31
38	333	-427	413	31
161	370	447	-162	31
247	247	174	-177	31
-87	163	-106	-243	31
-207	69	73	-259	31
-9	131	-304	-206	31
149	65	-478	-61	31
75	182	491	9	31
2	199	60	77	31
89	210	-67	228	31
-189	259	440	16	31
-115	185	251	50	31
92	137	240	12	31
-156	-9	372	1	31
-78	-122	593	365	31
-48	-168	425	264	31
30	-15	254	11	31
129	139	-218	17	31
-12	72	-272	-47	31
35	10	-55	-214	31
-78	-5	546	-375	31
-30	137	939	-241	31
143	304	-573	-13	31
112	264	-1795	-115	31
39	154	-1467	-250	31
-84	61	-324	-290	31
-21	15	759	-386	31
-1	56	1341	-573	31
-119	157	1005	-434	31
-10	189	415	402	31
19	245	127	1418	31
-117	510	-170	1174	31
