File Name: not saved
Channel 1: 'EMG 1', 9514 values, raw ADC, no filters.
Channel 2: 'EMG 2', 9514 values, raw ADC, no filters.
Channel 3: 'EMG 3', 9514 values, raw ADC, no filters.
Channel 4: 'EMG 4', 9514 values, raw ADC, no filters.
Digitals combined (event=16, d=8, c=4, b=2, a=1): 9514 values, .

22	-27	-79	34	31
-48	113	-720	-376	31
-148	39	-868	-1674	31
-145	-87	-520	-942	31
-165	-34	-151	401	31
-62	128	106	-231	31
87	134	106	423	31
-44	6	105	-196	31
-69	2	90	-164	31
36	2	196	249	31
-11	-47	285	194	31
-69	-41	287	732	31
-34	-41	395	26	31
161	50	533	407	31
205	122	606	549	31
9	35	191	-220	31
-24	-87	-499	-331	31
-32	-98	-848	-122	31
-65	-27	-1007	-9	31
-149	-34	-731	44	31
-280	32	-239	-261	31
-270	74	-171	-481	31
-215	10	102	203	31
139	92	294	452	31
468	222	214	466	31
218	383	237	356	31
79	343	26	-512	31
88	-149	63	-1433	31
-44	-619	133	-641	31
-14	-660	64	534	31
-49	-354	401	243	31
-12	-110	728	404	31
47	-67	449	432	31
117	37	-76	-75	31
128	85	-439	170	31
-117	198	-267	706	31
-14	185	547	941	31
30	-60	744	428	31
-34	-3	173	-201	31
3	134	-613	-1004	31
-112	145	-969	-1690	31
-107	212	-1072	-479	31
-132	166	-1063	642	31
-108	-147	-362	710	31
-9	-228	-179	569	31
27	35	61	-199	31
55	210	400	-200	31
140	72	347	363	31
97	-276	443	643	31
-36	-241	515	-305	31
38	9	704	-948	31
34	-97	452	-836	31
-12	-57	43	-715	31
-34	40	-292	243	31
41	-1	43	352	31
117	107	676	661	31
31	46	264	372	31
-10	85	-342	-787	31
-103	198	-713	-633	31
-102	138	-722	315	31
-44	-37	-451	774	31
-58	-192	-209	247	31
-53	-82	-19	-79	31
-53	-14	-7	103	31
-32	50	-17	666	31
-7	33	100	-7	31
-4	-37	368	-772	31
-97	29	424	-496	31
-93	-31	333	-235	31
19	-41	218	298	31
93	15	50	20	31
65	4	98	304	31
56	27	-11	696	31
150	94	-292	1053	31
97	39	-163	1320	31
52	6	-3	159	31
-5	85	134	-1294	31
-58	22	429	-1437	31
-52	-34	211	112	31
-37	-73	-279	130	31
3	-45	-358	-480	31
-7	-42	-382	-655	31
4	-92	-390	-431	31
-44	-30	-169	304	31
-62	-14	-151	-147	31
6	57	32	-78	31
55	153	660	-344	31
11	230	881	-758	31
-33	138	371	24	31
-9	-138	-143	487	31
-2	-163	-432	1113	31
26	-70	-818	1289	31
-17	-50	-607	234	31
-39	-18	-169	-604	31
-36	-9	-42	-238	31
9	7	444	-37	31
77	163	1047	-231	31
58	485	1208	-76	31
10	413	404	-660	31
-74	-264	-338	-893	31
-110	-538	-511	108	31
-137	-244	-464	699	31
-105	-150	-291	519	31
-26	-90	-479	385	31
108	-43	-613	441	31
274	-130	-664	927	31
115	-13	-200	1389	31
6	142	-3	1057	31
36	275	54	-514	31
-70	366	385	-1405	31
-76	447	237	-627	31
-85	363	270	-719	31
-22	-530	219	-748	31
85	-886	343	-1290	31
21	-222	419	-1267	31
26	-255	256	109	31
57	-126	31	461	31
-24	161	-246	588	31
-16	32	87	-404	31
17	265	291	-333	31
36	115	305	624	31
-9	-41	274	304	31
-83	-69	-352	383	31
-38	-72	-403	718	31
-8	34	277	643	31
61	-60	433	544	31
77	58	165	585	31
2	62	-738	75	31
-95	96	-1561	-1197	31
-194	127	-1098	-980	31
-201	49	-249	-479	31
-39	87	89	-512	31
90	6	136	479	31
10	11	172	238	31
42	142	184	192	31
13	184	232	181	31
-20	19	266	420	31
94	-132	278	1258	31
94	-164	349	718	31
123	-177	557	-243	31
89	-28	489	-1217	31
6	210	45	-181	31
-47	287	-290	278	31
-110	55	-430	-103	31
-159	-209	19	-100	31
-120	-163	527	-810	31
115	-43	485	145	31
180	-60	467	1055	31
27	9	-58	1139	31
27	41	-772	353	31
37	-7	-476	-1111	31
-12	17	-90	-1615	31
22	24	402	-855	31
26	197	804	495	31
-23	449	-143	-24	31
-57	277	-543	-244	31
9	-345	-297	561	31
39	-612	-55	454	31
-46	-318	689	388	31
-41	-174	274	-300	31
-46	1	-661	-94	31
-49	214	-1112	900	31
-59	176	-778	-87	31
-23	182	-181	-171	31
68	-55	-197	386	31
-14	-145	128	-313	31
-34	246	98	-673	31
11	432	84	-955	31
8	282	338	-361	31
-26	-69	382	370	31
-55	-126	527	156	31
-39	-219	383	340	31
-17	-622	223	672	31
23	-313	365	-290	31
51	134	759	-622	31
105	84	767	-173	31
77	50	115	-439	31
16	-143	-724	65	31
-45	-217	-1194	-7	31
-49	31	-1252	119	31
27	87	-752	496	31
0	-26	-241	504	31
19	-125	-175	599	31
49	-47	31	342	31
54	127	44	350	31
37	130	154	-107	31
-6	153	488	-203	31
-45	257	834	-1007	31
-92	188	926	-1446	31
-98	-95	788	-257	31
-153	-81	583	-127	31
-122	292	132	509	31
-34	133	-59	773	31
-75	-307	-707	586	31
-40	-229	-1515	737	31
136	-11	-1201	319	31
106	-30	-427	572	31
60	-77	160	105	31
168	-50	545	-612	31
67	-21	608	-234	31
29	7	382	649	31
19	32	12	969	31
-102	66	-270	-525	31
-155	61	-82	-1894	31
-167	26	171	-1159	31
15	3	327	75	31
189	34	476	1030	31
197	49	413	706	31
98	-11	150	-156	31
-52	85	-148	-526	31
-196	199	-398	215	31
-141	-40	-428	909	31
54	-293	-31	-146	31
166	-196	-166	-996	31
143	-171	-194	-1620	31
-122	-145	165	-300	31
-239	81	-85	385	31
-103	130	-322	-137	31
-40	102	-209	478	31
31	88	93	326	31
106	97	467	623	31
57	173	879	389	31
156	40	718	209	31
77	-62	55	502	31
-120	222	-511	-78	31
-72	526	-863	-478	31
-85	298	-701	-570	31
102	-344	-449	-973	31
67	-376	-282	-67	31
-7	-50	97	448	31
94	-266	373	251	31
-121	-234	515	663	31
-146	-69	688	838	31
-65	-53	358	206	31
-97	178	-183	-1158	31
-276	227	-452	-296	31
-464	134	-490	799	31
-307	-16	-208	1012	31
49	-181	290	461	31
453	-329	609	-512	31
413	-275	275	-900	31
252	-80	-305	-819	31
400	-65	-383	-482	31
221	-4	-22	-775	31
243	52	143	-112	31
269	12	26	737	31
21	-12	-322	854	31
27	-18	-479	344	31
-159	72	-210	-476	31
-172	231	71	-294	31
-162	485	264	337	31
-267	447	499	98	31
-251	-137	799	76	31
-211	-370	481	312	31
95	-70	-83	-369	31
246	-107	-664	-101	31
18	-186	-874	622	31
-145	20	-263	504	31
-47	-45	-80	549	31
-36	97	-71	217	31
-12	192	56	11	31
28	-97	145	651	31
16	-16	360	250	31
84	26	482	-1834	31
69	1	575	-2064	31
-12	233	312	-460	31
-29	300	-114	-156	31
60	69	-333	-8	31
68	-176	-211	151	31
-12	-224	84	206	31
-79	-215	163	341	31
-109	-108	-82	676	31
-111	-45	-538	1025	31
-77	-29	-553	102	31
52	17	-166	-482	31
83	-10	96	262	31
-137	-18	-93	519	31
-267	-33	-170	9	31
-205	228	115	555	31
-65	366	429	531	31
49	-48	508	343	31
201	-190	148	-673	31
434	115	24	-2047	31
128	288	-381	-717	31
-21	90	-375	-179	31
111	-404	-102	305	31
-95	-471	-254	812	31
-91	-157	56	415	31
-101	-121	9	408	31
-21	15	9	-297	31
135	82	337	-534	31
59	-1	658	-224	31
-189	32	686	-156	31
-188	26	277	26	31
158	70	-202	221	31
69	-11	-805	-53	31
-98	17	-596	-97	31
98	101	-224	363	31
146	60	-83	23	31
-1	79	320	-873	31
2	-34	145	-492	31
-118	50	-51	-31	31
-232	344	-43	256	31
-73	245	-59	861	31
-11	-298	99	365	31
-9	-255	499	503	31
14	374	908	318	31
-209	294	367	-359	31
-295	-85	-411	-239	31
59	-274	-750	-238	31
279	-411	-663	363	31
341	-274	-204	450	31
128	-92	-235	301	31
-2	28	-282	229	31
81	85	-124	279	31
-44	80	-175	852	31
-46	23	-1	-214	31
-88	-27	492	-1653	31
46	-23	730	-886	31
66	31	451	134	31
-234	85	194	-555	31
-337	-23	-247	-981	31
-419	-138	-389	67	31
-276	-140	-186	426	31
52	-41	-118	-527	31
64	230	167	-11	31
444	339	73	555	31
835	108	75	84	31
333	49	443	4	31
2	15	644	-13	31
-8	-71	294	392	31
10	47	-157	388	31
53	-42	-400	289	31
-65	-21	-639	27	31
-135	53	-308	-195	31
-337	88	-385	131	31
-454	432	-398	-29	31
-352	435	80	69	31
-26	37	111	171	31
378	-385	85	-132	31
325	-353	-17	-124	31
220	-105	25	584	31
278	-297	189	776	31
122	-260	256	20	31
6	-96	53	163	31
-37	-70	-108	547	31
-129	22	-80	-428	31
-151	-80	91	-1672	31
-146	-26	560	-620	31
-36	-1	662	340	31
33	-79	697	-281	31
129	75	179	-380	31
102	64	-592	-453	31
-148	47	-737	-155	31
-85	166	-505	400	31
-65	155	107	789	31
-148	7	-107	747	31
-207	-192	-682	226	31
-352	-100	-834	-334	31
-327	97	-464	-259	31
-156	112	261	280	31
362	166	277	175	31
360	27	347	-161	31
-237	-54	386	-416	31
-59	-107	130	-293	31
333	-412	-45	-140	31
294	-312	-49	-4	31
-86	-16	132	450	31
-362	289	69	217	31
57	453	107	-220	31
336	201	88	-53	31
166	315	-36	345	31
245	316	-37	524	31
52	-182	-31	113	31
-337	-264	82	-425	31
-492	-77	328	-262	31
-477	-26	457	-461	31
-131	-32	275	-226	31
314	22	60	559	31
745	-29	-204	400	31
220	-137	-418	497	31
-73	-92	-229	-214	31
130	-31	-100	-636	31
-85	110	-26	4	31
185	286	168	62	31
125	221	105	-222	31
26	-124	-22	-300	31
-29	-183	-119	279	31
-19	44	-53	422	31
107	-131	123	136	31
-25	-109	101	2	31
-76	196	-71	43	31
-337	218	-328	-363	31
-217	105	-268	-887	31
4	-265	186	-407	31
-21	-291	809	206	31
36	-150	1014	350	31
113	-169	421	308	31
-32	-31	-325	-270	31
-329	-100	-1104	-641	31
-372	-70	-1133	362	31
-251	100	-438	655	31
408	124	-224	328	31
459	104	-2	390	31
-84	239	92	547	31
37	258	-8	980	31
-80	-29	110	1057	31
14	36	198	224	31
134	399	314	-1953	31
18	145	345	-1363	31
75	-427	548	118	31
22	-278	988	80	31
51	-76	497	962	31
-89	-166	-546	-756	31
-132	-133	-964	-1699	31
-149	-177	-946	-1009	31
-113	-92	-120	-83	31
8	-3	285	979	31
-19	18	12	236	31
74	24	-7	317	31
45	-39	-221	-92	31
21	-17	-64	-52	31
37	7	257	180	31
-19	124	524	226	31
-129	191	366	672	31
-338	19	-62	211	31
-361	-151	-335	-21	31
-236	-44	-392	-410	31
-125	156	-57	-457	31
-272	37	-72	-82	31
-365	-111	-44	214	31
242	4	-32	144	31
918	108	-22	381	31
892	150	204	677	31
189	280	214	635	31
-217	368	145	510	31
-146	553	-46	2	31
42	401	-51	-14	31
390	-370	-26	100	31
396	-603	-9	795	31
176	-333	167	346	31
74	-382	405	-2071	31
34	-376	582	-2069	31
-183	-176	278	-286	31
-276	-4	-235	691	31
-178	241	-578	55	31
-181	258	-636	-666	31
-136	-15	-300	168	31
47	-1	-92	464	31
62	300	-85	287	31
-109	173	-83	198	31
-148	-167	-133	283	31
-41	-190	-6	396	31
30	-144	124	53	31
47	-13	338	-102	31
40	231	388	160	31
-57	187	333	7	31
-14	-7	520	-442	31
-44	-77	469	-88	31
-62	-97	123	309	31
-7	-39	-247	-26	31
-69	-1	-855	-192	31
-84	175	-1010	-199	31
-115	343	-32	-345	31
-44	140	488	-112	31
47	-200	238	7	31
32	-173	-33	103	31
-6	-22	-417	403	31
4	-247	-536	332	31
2	-216	-142	314	31
47	-33	73	352	31
94	-48	-65	660	31
46	80	-54	984	31
25	69	-22	469	31
-65	-27	209	-208	31
-146	-12	358	-1134	31
-130	100	277	-1060	31
-50	198	297	-180	31
73	66	353	-381	31
94	-41	521	-1127	31
-4	-112	539	-1284	31
-19	-181	-65	-263	31
-26	11	-611	-250	31
-71	171	-554	34	31
41	-138	-385	557	31
123	-251	-147	608	31
200	-21	102	1166	31
0	-50	360	744	31
-231	37	426	-226	31
-62	54	497	-773	31
39	150	334	11	31
163	474	-269	183	31
62	244	-315	-216	31
-181	-6	-759	-125	31
55	-84	-968	-333	31
232	-208	-148	406	31
100	-250	-14	522	31
48	-160	-3	-290	31
61	173	148	696	31
67	127	6	914	31
55	-188	145	90	31
-17	-183	403	-940	31
-57	-35	617	-1209	31
-105	39	513	208	31
-206	-67	-90	-316	31
-246	-124	-286	16	31
-226	-42	-167	1070	31
-97	-12	-340	556	31
107	60	-242	-34	31
165	-39	-108	-1009	31
-25	-116	-91	-36	31
29	47	-71	332	31
154	60	-218	-420	31
14	152	98	-226	31
75	259	636	-341	31
-41	383	785	316	31
-239	620	594	13	31
-323	343	158	-33	31
-304	-394	-509	398	31
80	-661	-692	444	31
472	-102	-550	938	31
345	398	-497	637	31
38	362	-24	420	31
163	-241	221	-353	31
102	-608	684	-835	31
57	-163	1060	-602	31
113	-120	305	-717	31
-80	-148	-544	-181	31
-118	-32	-889	896	31
-84	-63	-408	855	31
54	27	315	-570	31
11	-39	240	-849	31
-146	-35	-264	-1028	31
-124	-123	-745	-541	31
-170	16	-681	317	31
-182	137	-157	-243	31
-148	-64	173	936	31
-26	88	166	1780	31
152	166	76	1806	31
144	212	249	700	31
46	173	237	-1565	31
69	87	160	-2309	31
72	378	102	-1531	31
-47	708	29	-828	31
-126	514	280	-1317	31
-291	-455	313	-456	31
-263	-1002	97	1159	31
21	-576	-55	756	31
170	-14	12	224	31
211	57	-16	134	31
31	-84	-150	372	31
74	11	-132	648	31
222	11	-25	-216	31
76	12	158	219	31
-27	99	203	376	31
-11	126	219	435	31
112	15	156	761	31
162	-83	150	600	31
6	165	259	693	31
17	229	280	322	31
11	-19	42	103	31
-242	-154	-388	93	31
-160	-169	-528	-16	31
87	-108	51	-857	31
154	-5	651	-454	31
90	156	340	-24	31
59	201	-79	290	31
22	-29	-500	646	31
39	-151	-692	-128	31
12	240	-345	-206	31
-146	335	-465	-634	31
-77	-210	-583	-888	31
-112	-290	282	62	31
-42	11	1175	914	31
58	107	752	-529	31
-42	1	131	-885	31
-44	-328	84	-578	31
-60	-250	-317	199	31
-21	-24	-708	1208	31
-30	-134	-892	-172	31
-71	-16	-1299	-817	31
-145	-32	-940	-994	31
-204	14	17	224	31
-70	203	408	258	31
103	159	452	-217	31
84	14	322	267	31
20	-190	219	125	31
85	-23	264	508	31
46	72	257	458	31
67	39	108	850	31
91	77	57	-16	31
-12	-22	360	-956	31
-70	55	485	-641	31
-125	277	257	-249	31
-183	417	99	255	31
-267	75	-49	416	31
-191	-221	0	610	31
-56	-16	176	621	31
199	-3	229	489	31
492	-244	396	-145	31
269	-105	186	88	31
103	191	102	532	31
103	21	637	-324	31
29	-78	457	-282	31
47	-112	-120	-724	31
31	-198	-568	-837	31
21	-141	-1008	-254	31
-97	-120	-362	-164	31
-279	-16	-276	439	31
-438	234	-980	56	31
-567	465	-590	153	31
-654	85	-355	342	31
-321	-434	-159	626	31
530	-125	165	1135	31
1002	249	315	969	31
663	165	735	595	31
281	89	778	-584	31
173	-69	449	-1402	31
-42	-223	270	-798	31
-34	-221	590	-307	31
17	-82	841	-1459	31
-54	-45	342	-1530	31
-55	-50	-838	-218	31
-85	44	-2021	766	31
-61	33	-1519	383	31
-67	284	-43	196	31
-75	481	225	572	31
-133	183	210	698	31
-178	-239	158	708	31
-168	-209	39	105	31
-30	-199	532	30	31
173	-343	744	459	31
-56	-47	242	399	31
-229	-31	-322	-1055	31
-179	70	-454	-1281	31
-107	287	-386	-803	31
95	155	139	-379	31
266	197	378	372	31
327	107	158	239	31
74	-205	112	297	31
106	-311	-32	17	31
47	-96	113	325	31
-135	-130	99	841	31
-40	-130	-51	1068	31
-61	65	-54	953	31
4	-75	39	-241	31
-32	37	418	-1648	31
27	111	830	-1169	31
39	22	925	494	31
-26	96	258	861	31
-11	70	-367	1752	31
-27	178	-460	1477	31
-33	402	-600	-418	31
-188	428	-662	-2121	31
-171	-45	-528	-1567	31
-31	-403	-690	108	31
-12	-305	-542	-593	31
62	-289	95	-820	31
99	-115	250	-737	31
88	75	95	18	31
107	19	-67	-40	31
-4	-62	-32	283	31
-137	-100	195	1229	31
-251	42	747	994	31
-241	317	1028	444	31
-184	310	232	-919	31
65	-59	-373	-791	31
499	-199	-918	455	31
241	-30	-1397	1682	31
88	-87	-792	1468	31
150	-72	-449	323	31
-158	75	1	-1286	31
-295	32	869	-877	31
-477	64	1147	-430	31
-448	2	1114	-1821	31
-60	-26	686	-489	31
331	24	-92	51	31
199	239	-346	80	31
221	368	239	181	31
448	-41	344	120	31
166	-146	-67	611	31
133	-191	-563	705	31
91	-261	-792	629	31
102	57	-492	750	31
97	522	-214	1464	31
-18	182	-67	1178	31
-16	-631	-192	1	31
-93	-345	-3	-886	31
-47	-208	752	-700	31
-80	-169	1756	-525	31
-65	32	1301	-302	31
34	-153	50	-1193	31
-128	-59	-734	-1449	31
-484	-141	-1834	69	31
-554	-103	-1205	-688	31
-206	-10	-383	-611	31
301	166	-363	379	31
612	678	54	380	31
329	499	11	593	31
100	-26	163	533	31
39	-192	130	196	31
-68	-245	153	-13	31
-27	-117	332	-55	31
-41	161	537	-120	31
50	181	655	217	31
94	-76	225	224	31
-46	-112	-77	208	31
-82	80	-386	433	31
-61	21	-276	309	31
-48	-26	42	693	31
9	-7	-145	852	31
24	34	-110	165	31
-48	214	45	60	31
-84	171	109	-117	31
-92	47	151	-220	31
-56	-95	105	-264	31
-18	-143	180	-1221	31
-197	-17	69	-632	31
-325	-32	77	51	31
-193	-106	67	-420	31
46	-190	137	321	31
359	-89	784	583	31
231	102	904	-899	31
-60	14	271	-1171	31
60	-29	-132	-153	31
-146	34	-718	-57	31
-220	-9	-1049	379	31
-35	35	-471	509	31
-24	89	-605	304	31
16	114	-328	455	31
-155	57	191	31	31
-171	-39	-118	190	31
166	183	13	373	31
567	401	-51	136	31
289	139	-74	13	31
59	-499	-140	130	31
195	-510	-204	1046	31
-27	145	52	1567	31
-21	369	98	981	31
-127	327	358	-675	31
-160	-124	759	-2396	31
-157	-368	592	-344	31
-265	-24	-147	1584	31
-338	-194	-720	669	31
-407	-442	-684	775	31
-91	-328	122	143	31
383	-21	927	-16	31
805	133	1379	-221	31
448	-3	1068	4	31
-69	-35	-47	670	31
4	26	-1079	209	31
-180	132	-1632	425	31
-211	257	-1228	516	31
-107	191	-510	573	31
-62	24	-118	-88	31
189	-45	113	-1479	31
213	-75	419	-2502	31
79	97	510	-649	31
-18	29	606	211	31
-6	-104	727	-636	31
24	110	363	70	31
-110	-52	190	-269	31
-209	-53	113	-33	31
-183	-6	348	203	31
-95	-200	479	147	31
132	4	-136	141	31
290	97	-606	214	31
94	85	-1138	277	31
-94	38	-1195	-98	31
1	11	-624	-188	31
-28	121	-170	-22	31
-36	105	353	544	31
-65	189	520	-4	31
-153	283	443	-1136	31
-52	199	368	-992	31
115	-49	170	-57	31
170	-110	-87	129	31
-75	-191	-255	-50	31
-49	-428	-298	-602	31
-23	-168	-126	-62	31
-97	-52	67	-49	31
50	-161	165	-1105	31
-53	43	509	-1360	31
-80	60	481	-996	31
-67	176	196	499	31
-66	333	-60	746	31
-31	241	-285	1052	31
-26	49	9	1126	31
94	-216	287	254	31
59	-214	69	-569	31
-5	-160	-266	-1023	31
21	-39	-620	50	31
28	255	-469	172	31
-19	188	270	274	31
-84	-102	439	527	31
-80	-4	411	-348	31
-111	37	400	-348	31
-56	-355	-11	160	31
90	-216	-176	-74	31
108	209	-156	-129	31
69	274	20	-45	31
-15	141	202	-72	31
-126	-222	-49	357	31
-133	-370	-236	908	31
-30	-325	-115	1692	31
150	-115	-184	1645	31
131	150	-32	212	31
-49	182	593	-1868	31
-68	303	461	-2086	31
-215	167	-185	-191	31
-461	4	-595	443	31
-316	-76	-912	663	31
216	-194	-451	124	31
705	283	199	-1051	31
762	215	371	-482	31
274	-300	440	-16	31
67	-249	110	-32	31
44	-236	-206	-254	31
-123	-22	-284	29	31
9	153	-270	660	31
-67	54	-235	587	31
-95	64	-108	567	31
-134	67	-32	483	31
-173	-5	-104	750	31
-47	-29	171	1017	31
44	25	644	357	31
160	-52	1087	-713	31
-7	-68	894	-1934	31
-119	12	437	-1718	31
-173	47	-364	-15	31
-246	100	-772	403	31
-259	120	11	256	31
-62	59	-202	464	31
159	37	-532	91	31
-12	504	-431	-75	31
217	771	-691	-5	31
210	-72	-356	460	31
-44	-701	-198	906	31
166	-428	-74	-279	31
22	-338	296	-1262	31
-28	-162	305	-520	31
-45	225	277	49	31
-117	118	159	487	31
-18	-140	204	509	31
-12	-76	427	129	31
75	6	446	-138	31
33	-179	103	-724	31
-22	-21	-70	-314	31
-63	302	191	334	31
-87	560	310	561	31
-41	340	105	269	31
-89	-528	-165	275	31
-143	-441	-572	901	31
-84	21	-864	1104	31
49	-118	-455	694	31
122	-144	220	-1416	31
133	-79	1002	-2148	31
55	-52	584	-799	31
21	-30	-104	-300	31
-9	-44	-474	763	31
-47	39	-1075	180	31
-15	187	-307	-539	31
-47	283	82	596	31
-30	260	495	-22	31
-55	-32	1270	290	31
36	-260	652	847	31
35	-64	-429	1022	31
-146	85	-1150	979	31
-100	126	-1073	-353	31
-149	206	-65	-1325	31
-112	-32	712	-314	31
75	-184	689	835	31
49	-44	527	-597	31
-14	7	-265	-623	31
107	146	-864	-492	31
229	100	-1251	266	31
228	-159	-918	378	31
101	-27	183	-1031	31
-6	95	284	-398	31
1	-158	606	-20	31
-36	-308	1024	174	31
22	-147	1351	-284	31
13	2	1108	-259	31
-56	136	-120	606	31
-31	259	-861	680	31
-54	29	-1380	268	31
-26	-214	-929	28	31
-19	-25	-26	65	31
-31	188	65	-101	31
-14	226	355	-44	31
4	-34	375	54	31
29	-291	189	226	31
25	-33	163	395	31
32	14	19	246	31
-6	63	92	284	31
-59	398	189	415	31
-102	537	332	138	31
-103	93	299	-388	31
-44	-576	184	-839	31
32	-174	-1	211	31
101	-23	-287	1461	31
60	-406	-79	759	31
23	-155	58	-656	31
8	-156	-67	-2206	31
-100	30	-310	-967	31
-173	203	-406	334	31
-143	19	-150	-600	31
16	102	-158	-225	31
224	-73	-105	148	31
93	-59	387	342	31
6	28	853	437	31
85	-72	537	219	31
17	85	-143	704	31
52	75	-695	908	31
-1	74	-859	208	31
-14	105	11	-1111	31
14	71	514	-1149	31
-17	112	311	358	31
-27	88	105	434	31
-98	12	-335	215	31
-27	-50	-388	130	31
-29	85	-306	108	31
-47	115	-183	391	31
21	212	345	-699	31
-48	675	484	-777	31
-92	436	184	-208	31
-75	-465	-237	-216	31
-17	-813	-525	285	31
87	-505	-413	75	31
90	-282	-108	55	31
56	-209	652	246	31
84	-10	1068	107	31
41	117	320	334	31
-21	378	-388	138	31
-78	483	-906	390	31
-120	-44	-850	893	31
-82	-438	-45	767	31
-25	-206	207	266	31
94	-70	413	-639	31
152	-92	501	-911	31
59	-14	219	-365	31
41	-65	29	-170	31
72	192	-141	-109	31
0	466	-174	489	31
-22	135	-133	247	31
-36	-247	48	-539	31
-42	-206	235	-388	31
-2	-48	512	-390	31
-9	-9	714	-478	31
-23	72	185	88	31
-32	236	-261	487	31
-32	222	-496	190	31
-44	-236	-931	-530	31
-35	-372	-555	-546	31
-9	-44	-457	663	31
18	87	-458	627	31
22	135	111	-144	31
-22	-18	228	122	31
-7	-148	547	727	31
49	-57	589	1343	31
62	1	320	363	31
-14	45	120	-485	31
-85	30	-129	-901	31
-34	31	-403	-1322	31
62	209	-400	-134	31
59	430	-69	120	31
-56	449	-69	-1099	31
-116	117	147	-1505	31
-102	-97	394	117	31
-50	-124	788	856	31
1	-496	984	253	31
6	-438	386	224	31
56	-102	259	160	31
88	-189	117	993	31
75	-52	-301	1097	31
103	130	-380	237	31
23	123	-761	-782	31
-133	60	-1025	-442	31
-151	-9	-585	850	31
-7	138	-155	259	31
119	166	26	-324	31
34	14	72	-555	31
57	85	-69	-358	31
7	330	-139	-43	31
-11	110	258	24	31
107	-330	657	-68	31
-28	-208	464	-322	31
58	-161	72	292	31
63	-172	-510	603	31
17	65	-615	746	31
49	-3	-241	294	31
-23	30	-76	-522	31
-27	82	327	-1045	31
-90	-7	439	-823	31
-60	28	214	445	31
-44	-32	-64	235	31
-14	-10	-113	-9	31
33	22	97	219	31
-12	28	-16	287	31
-19	99	39	1355	31
17	98	314	1483	31
27	52	436	621	31
-54	-28	127	-1435	31
-95	-20	-251	-1876	31
-49	-4	-554	916	31
35	-22	-565	927	31
69	5	34	115	31
15	-65	119	-153	31
-46	35	-167	-1178	31
-79	531	-218	-1368	31
-63	611	312	-1350	31
-24	-148	1197	9	31
-10	-634	1325	837	31
-13	-407	414	618	31
-14	-292	-491	123	31
-36	-180	-1343	200	31
-26	-9	-1510	487	31
65	-66	-515	-125	31
69	-42	-299	-9	31
7	-38	-54	13	31
34	31	259	-87	31
33	120	288	-48	31
9	92	315	133	31
-13	103	67	417	31
-50	234	219	487	31
-43	372	231	228	31
-16	112	196	-258	31
62	44	72	-249	31
62	167	-114	-166	31
47	-290	-82	-132	31
83	-371	80	-205	31
37	-95	302	-173	31
17	-135	597	186	31
-2	11	635	98	31
-62	-16	105	-832	31
-95	-65	-231	-878	31
-84	35	-520	105	31
-77	-21	-367	501	31
2	37	84	569	31
139	45	227	-65	31
52	88	438	-645	31
-47	101	-38	-153	31
5	16	-492	264	31
-16	9	-614	112	31
32	-72	-532	156	31
69	-103	302	279	31
39	21	272	212	31
2	91	118	129	31
-94	73	178	-202	31
-101	62	-240	-193	31
-85	-45	-207	-219	31
-102	-14	-194	-225	31
-19	72	-102	-7	31
32	93	-181	61	31
37	332	-327	208	31
85	337	-226	104	31
64	-34	36	156	31
51	-261	405	434	31
33	-82	358	751	31
-6	68	87	464	31
-8	-268	-35	-292	31
6	-360	666	-264	31
64	-32	1189	663	31
92	171	600	-228	31
1	248	-270	-2146	31
-89	-85	-977	-1342	31
-87	-342	-1115	16	31
-84	-171	-470	569	31
-50	-28	-75	314	31
-37	323	-128	-190	31
-38	160	-74	238	31
64	-403	-1	656	31
148	-313	423	439	31
112	-260	606	-405	31
31	-115	388	-552	31
-121	271	99	-47	31
-336	406	-146	18	31
-262	310	-290	254	31
33	-163	-224	395	31
207	-207	60	335	31
195	-59	106	268	31
133	-182	94	-2	31
151	-7	-133	-375	31
90	-6	-338	-759	31
19	59	-357	-392	31
-27	207	-89	-5	31
-44	175	158	373	31
22	78	103	580	31
9	-160	202	137	31
-46	-49	145	21	31
-39	21	102	135	31
-27	5	130	192	31
-44	4	211	275	31
-6	-111	156	332	31
21	105	43	446	31
24	136	89	491	31
3	129	22	276	31
-45	229	-44	-444	31
-140	37	-65	-863	31
-248	-70	-85	-535	31
-239	-101	45	-976	31
-237	-146	179	-355	31
-77	-246	-59	209	31
195	-224	-279	-42	31
37	-130	-406	648	31
69	-97	-196	267	31
415	105	103	158	31
254	143	183	-109	31
160	32	446	-347	31
148	41	273	122	31
-14	7	-47	176	31
-16	-62	-388	334	31
-20	-57	-734	-10	31
5	52	-393	-264	31
-17	179	-47	-83	31
-32	106	9	-243	31
-43	2	74	-68	31
-74	7	100	132	31
-95	-16	235	-199	31
-128	64	398	19	31
-158	65	403	-67	31
-307	-122	168	-87	31
-388	-258	-87	247	31
-452	-263	-285	170	31
-467	22	-337	66	31
-112	436	-89	9	31
463	525	-74	194	31
874	262	-37	151	31
775	303	269	220	31
328	181	568	-22	31
38	-376	570	-463	31
-34	-177	49	-76	31
-79	108	-413	194	31
15	41	-691	380	31
80	-252	-578	744	31
46	-458	-312	456	31
6	-247	-75	-176	31
-151	-354	241	-578	31
-97	-184	298	-342	31
-6	-11	222	570	31
-78	155	57	-78	31
-137	614	108	-1087	31
-249	624	187	-480	31
-211	286	158	-400	31
-160	-188	205	-398	31
-92	-381	362	-64	31
198	-515	428	105	31
95	-518	195	172	31
-28	-275	-9	64	31
133	-54	-232	-45	31
64	79	-227	55	31
-49	-11	-103	284	31
-167	68	-158	1	31
83	71	-12	29	31
315	29	116	269	31
12	22	251	86	31
-108	-52	-52	172	31
-13	56	-535	304	31
-56	140	-471	436	31
-140	143	-859	437	31
-202	78	-553	100	31
37	88	-153	-142	31
249	141	-305	-165	31
15	64	294	-132	31
-25	4	338	-246	31
44	-84	214	-457	31
-37	-135	141	-201	31
-65	-78	-41	-48	31
6	-121	37	44	31
160	-132	-105	460	31
115	-29	-58	120	31
-28	-6	68	-315	31
-25	-1	175	-405	31
-78	93	256	12	31
-208	270	223	309	31
-53	242	420	242	31
16	139	702	577	31
55	131	336	7	31
108	18	-248	-883	31
-65	31	-552	-357	31
-131	79	-868	321	31
-268	44	-327	256	31
-240	-20	231	603	31
-168	-75	136	-113	31
137	-92	337	-1185	31
244	-109	414	-529	31
-100	-31	544	577	31
189	-7	514	1128	31
201	115	252	1218	31
67	207	9	570	31
120	-23	-567	-1064	31
-28	-68	-610	-1660	31
39	-84	-667	-486	31
-171	-115	-780	83	31
-168	-39	-155	-234	31
-29	-29	177	25	31
54	84	573	1	31
27	124	995	12	31
-169	249	778	228	31
52	352	129	85	31
86	139	-534	218	31
255	-265	-875	341	31
430	-510	-865	201	31
66	-215	-275	-412	31
-156	231	-24	-461	31
-479	430	54	121	31
-762	-4	323	102	31
-144	-553	239	183	31
796	-371	150	178	31
707	-184	36	22	31
234	-206	-65	103	31
153	-85	42	7	31
-27	-67	209	20	31
-59	-20	209	164	31
-106	93	87	190	31
-196	81	-56	-215	31
-194	50	-148	-185	31
-189	-22	-132	499	31
-114	9	300	233	31
-73	39	1039	87	31
-46	32	810	325	31
-115	169	-292	178	31
-112	87	-945	-456	31
-72	-105	-1183	-737	31
-87	-207	-653	-421	31
31	-166	221	-492	31
78	43	8	180	31
162	249	-82	492	31
252	254	-54	843	31
146	110	-72	1154	31
89	122	164	60	31
-21	56	186	-1216	31
-80	-30	450	-1183	31
-61	8	243	-217	31
-57	102	-122	-366	31
4	203	-11	-104	31
-21	22	474	127	31
-80	-156	1109	380	31
-130	-54	996	509	31
-51	-14	236	161	31
-50	-56	-399	-266	31
-75	22	-1132	-708	31
4	9	-1088	-185	31
-48	45	-42	-252	31
-113	197	-131	689	31
-118	413	-299	697	31
110	394	-127	-91	31
215	-292	50	494	31
140	-556	323	175	31
217	-177	-214	24	31
93	-40	-478	-232	31
4	-97	-519	-32	31
-27	-166	-370	474	31
-111	-29	-125	295	31
-67	21	-27	50	31
-91	-126	137	-745	31
-165	-109	168	-801	31
-279	-113	457	-34	31
-304	-27	414	61	31
-234	85	258	171	31
94	109	188	264	31
393	175	44	416	31
95	178	-9	833	31
79	103	22	323	31
165	-69	257	-412	31
153	-68	222	-871	31
269	-67	98	-87	31
-18	-151	-138	729	31
-24	-105	-313	-189	31
-27	-128	-34	-965	31
-203	-82	561	-823	31
-182	-21	1336	764	31
-9	103	1125	1062	31
319	194	25	-233	31
201	120	-900	-1196	31
-141	174	-1524	-1675	31
-266	127	-803	-439	31
-254	53	-103	564	31
31	58	-284	531	31
382	30	-21	413	31
195	-4	-234	231	31
-69	-140	-277	160	31
37	-217	-59	196	31
10	-161	32	219	31
20	-14	141	307	31
58	244	254	496	31
16	470	941	532	31
-100	187	1088	386	31
-282	-156	515	345	31
-170	-39	-139	-89	31
67	-217	-610	-136	31
332	-295	-678	62	31
260	-16	-466	-339	31
-40	-154	-439	-103	31
-66	-200	-241	-1110	31
-102	-107	336	-1388	31
-93	-162	489	75	31
-80	-96	218	403	31
-44	-74	-224	535	31
-2	30	-561	93	31
-50	112	-170	-78	31
1	191	925	-71	31
-19	379	961	117	31
-19	280	200	810	31
-31	-55	-254	443	31
-80	-196	-435	-323	31
-91	-77	-80	-1114	31
-84	-51	-241	-509	31
9	-49	-598	301	31
12	-21	-644	39	31
74	6	-283	200	31
140	105	311	-206	31
56	96	249	-367	31
-9	138	93	85	31
-64	196	-15	936	31
-37	262	-39	1532	31
73	434	-145	855	31
82	452	-343	-412	31
-14	373	-254	-1605	31
-67	125	-118	-1041	31
-126	-260	-44	198	31
-108	-388	37	165	31
-84	-459	166	-121	31
-82	-624	178	-212	31
79	-526	325	-305	31
208	-223	487	97	31
277	-23	400	233	31
156	59	168	128	31
-36	136	-16	419	31
0	199	-71	615	31
-26	144	221	589	31
-70	-85	1169	64	31
-32	-341	1890	-522	31
-59	-292	1094	-172	31
-110	-89	-472	728	31
-170	-57	-1816	288	31
-129	32	-2117	-964	31
66	134	-668	-1121	31
36	141	-57	224	31
-52	232	-208	923	31
74	257	28	658	31
-14	300	211	375	31
-39	262	758	-822	31
91	93	1058	-464	31
54	73	480	54	31
-33	-72	-1017	87	31
-85	-252	-1462	337	31
-40	-238	-828	-1168	31
70	-98	140	-1798	31
90	73	666	-474	31
-1	28	-45	472	31
7	-128	-445	349	31
6	-146	-536	114	31
-12	63	-29	-230	31
54	187	331	329	31
35	193	294	831	31
-29	288	456	506	31
-44	219	335	587	31
37	39	619	-95	31
41	-186	1194	-403	31
41	-270	1355	-14	31
100	-174	309	-178	31
-26	-110	-847	309	31
-98	-24	-1759	756	31
-76	37	-1876	326	31
-76	31	-480	60	31
10	-12	8	-230	31
82	21	117	348	31
140	15	685	431	31
92	-20	1030	-699	31
-8	-53	1020	-1015	31
-37	-95	423	-473	31
-52	-84	-586	594	31
-52	-93	-1216	1166	31
-72	-2	-831	868	31
18	73	-148	-983	31
57	-7	577	-1652	31
-35	-110	608	-625	31
-50	-100	292	-499	31
-35	-14	122	433	31
-41	160	-214	563	31
-23	337	-74	362	31
11	209	-304	665	31
9	-2	-463	297	31
-17	14	-112	50	31
-4	56	8	-184	31
44	-11	197	65	31
47	1	694	-499	31
51	-50	1199	-317	31
27	-174	765	437	31
-27	-176	22	-55	31
-27	-146	-861	-127	31
-14	-36	-1381	-223	31
10	70	-835	293	31
-6	82	-166	276	31
-24	2	1145	-51	31
4	2	1631	-15	31
14	118	484	-249	31
-4	171	-482	152	31
23	279	-1248	58	31
39	254	-1178	351	31
-38	99	-247	551	31
-74	59	-113	187	31
-82	-26	-136	-105	31
-72	-177	538	-785	31
-6	-363	1007	-1308	31
47	-363	636	-693	31
52	-193	73	-41	31
-3	-102	226	-197	31
-49	-54	296	343	31
-53	-79	-213	461	31
-32	-70	-600	365	31
60	6	-711	438	31
117	56	-196	9	31
21	58	211	-399	31
-91	64	-300	-494	31
-107	214	-678	183	31
-64	328	-837	798	31
20	262	-330	428	31
38	130	208	177	31
-37	69	188	264	31
-145	68	395	-131	31
-55	-28	422	-204	31
90	-197	436	-681	31
-47	-333	185	-151	31
70	-217	-108	842	31
170	45	-268	906	31
59	-50	-131	612	31
135	-305	547	-565	31
84	-298	761	-813	31
50	-73	639	-1627	31
-7	11	363	-675	31
-71	8	-194	584	31
-18	122	-525	-55	31
24	69	-394	720	31
-15	70	-67	680	31
-56	181	235	1054	31
37	252	207	467	31
-19	269	-196	-986	31
-102	160	-221	-1306	31
-77	41	42	-551	31
-38	-50	357	383	31
39	-44	505	205	31
141	-31	644	299	31
157	-135	520	153	31
41	-183	-22	499	31
7	-108	-562	240	31
-45	-70	-1606	-677	31
-89	-50	-1559	-746	31
-91	-9	-763	311	31
-70	-1	-406	442	31
12	61	-65	-221	31
46	120	-28	-34	31
49	88	288	-346	31
9	112	432	396	31
22	215	466	614	31
55	203	535	125	31
34	8	451	19	31
-49	-176	410	-291	31
-137	-203	304	-271	31
-100	-153	218	-464	31
-33	-163	6	-39	31
-25	-217	199	-175	31
5	-136	507	-160	31
26	-32	452	274	31
24	7	300	387	31
21	52	-80	507	31
-5	35	-436	177	31
9	45	-466	78	31
2	29	-123	-50	31
-1	-29	486	726	31
-12	-69	289	777	31
-71	-70	-576	-543	31
-43	64	-884	-1706	31
45	158	-1009	-875	31
53	126	-274	694	31
27	124	403	339	31
42	149	201	763	31
-17	182	208	-448	31
-59	211	-441	-906	31
-79	105	-828	91	31
-102	-56	-380	-499	31
-68	-117	42	256	31
-16	-84	227	515	31
26	-34	224	456	31
19	-80	338	452	31
79	-226	357	-350	31
81	-220	484	-471	31
58	-50	751	34	31
103	-8	811	121	31
57	24	414	87	31
6	81	4	135	31
-1	33	-418	-351	31
-4	25	-112	-641	31
9	22	760	41	31
-12	45	105	368	31
-73	97	-555	-195	31
-67	84	-1126	306	31
-42	52	-1427	1292	31
-39	-31	-318	1502	31
-41	-65	169	123	31
-56	-61	509	-1917	31
-20	-102	507	-1133	31
6	-169	-75	780	31
-17	-222	-281	429	31
2	-75	-242	24	31
27	100	138	-764	31
19	112	96	-1401	31
64	102	-40	-429	31
119	63	123	2	31
124	74	742	92	31
56	107	1223	11	31
-52	88	348	196	31
-112	60	-618	254	31
-128	-7	-1010	492	31
-79	-42	-1003	1016	31
-32	-84	-202	1063	31
29	-77	118	638	31
88	46	29	-533	31
34	128	274	-1360	31
-28	92	482	-787	31
-78	-37	524	62	31
-105	-98	-30	-155	31
-92	-102	-487	-144	31
-17	-191	-653	342	31
101	-158	-489	692	31
151	-3	12	863	31
136	41	62	365	31
42	47	125	-281	31
-29	29	275	-622	31
-57	34	158	-575	31
-93	-8	310	-89	31
-64	-176	697	782	31
-4	-227	593	1428	31
49	-137	216	639	31
44	-19	135	-1408	31
8	188	64	-1431	31
40	504	49	439	31
2	441	-240	-125	31
-143	-71	-805	-1243	31
-152	-401	-740	-801	31
-90	-386	-370	87	31
-3	-160	-143	286	31
64	-32	-34	62	31
37	2	319	275	31
77	10	639	98	31
26	-54	458	201	31
-47	64	221	187	31
75	152	-232	563	31
120	151	-382	475	31
32	214	284	-187	31
23	161	296	-417	31
-21	75	-125	-256	31
-26	92	95	443	31
35	75	644	256	31
13	-73	821	287	31
6	-196	-230	166	31
6	-155	-1221	36	31
46	-41	-1740	431	31
8	62	-1469	891	31
-67	124	-349	774	31
-63	153	14	-650	31
-97	69	381	-2000	31
-70	-70	538	-1315	31
11	-75	249	779	31
64	-33	193	326	31
28	-3	272	-233	31
16	-27	543	277	31
36	-85	917	-360	31
-16	-88	924	-202	31
-1	-77	279	221	31
17	-71	-140	51	31
17	-62	-347	186	31
-4	-41	-408	484	31
-22	-21	-239	927	31
-11	74	-161	932	31
-4	149	95	-150	31
23	69	193	-1191	31
26	66	-206	-1928	31
36	252	-525	-1283	31
-28	474	-507	630	31
-89	307	-280	766	31
-51	-194	-54	476	31
-42	-401	-61	386	31
-44	-298	155	13	31
-28	-206	347	304	31
6	-174	542	101	31
34	-90	1008	341	31
27	-77	880	695	31
20	-67	489	830	31
54	-28	299	983	31
64	-47	-67	84	31
29	-18	-482	-819	31
-25	-12	-899	-2048	31
-107	12	-1390	-1094	31
-111	120	-1297	677	31
-55	145	-683	-348	31
-19	-58	-4	-269	31
19	-206	575	182	31
38	-76	549	405	31
17	38	239	360	31
-4	5	-122	-89	31
16	61	-261	391	31
34	120	-37	459	31
42	78	84	655	31
44	79	227	310	31
21	64	158	-539	31
-16	60	25	-607	31
-31	76	100	365	31
21	119	400	695	31
67	197	960	140	31
22	136	844	-520	31
-61	-26	360	-1138	31
-87	-105	37	-549	31
-51	-39	-299	-60	31
-34	40	-280	554	31
-67	31	-578	227	31
-59	16	-920	-451	31
-19	-11	-516	-506	31
-29	-79	-173	-668	31
-7	-171	14	-313	31
7	-210	22	-24	31
44	-130	-32	388	31
96	-47	-41	154	31
74	-6	-49	-106	31
90	40	56	-171	31
72	102	17	363	31
68	117	8	980	31
49	77	6	711	31
-23	52	241	-181	31
-36	16	821	-1418	31
-74	5	1046	-351	31
-89	11	633	-237	31
-90	-16	407	-971	31
-34	-39	266	153	31
24	-73	-421	298	31
-1	-62	-992	660	31
12	-7	-1204	707	31
92	44	-792	358	31
170	103	293	239	31
160	138	597	-41	31
87	168	140	480	31
-40	163	-179	726	31
-133	144	-653	528	31
-218	64	-558	-287	31
-291	-123	-72	-1260	31
-188	-225	56	-999	31
-64	-232	170	-487	31
17	-204	77	-103	31
94	-223	-9	259	31
98	-244	168	11	31
101	-182	740	246	31
70	-152	1161	653	31
23	-97	428	969	31
25	-16	-234	1006	31
12	59	-435	-188	31
19	117	-502	-2008	31
-7	95	133	-1702	31
-65	88	52	116	31
-39	159	-410	734	31
50	255	-239	1469	31
50	241	-194	983	31
-56	134	-557	-226	31
-84	50	-725	-845	31
-28	-23	-234	-537	31
-1	-106	26	434	31
-9	-166	165	62	31
47	-131	178	-545	31
53	-54	140	-473	31
-7	-14	260	25	31
7	17	307	711	31
6	37	586	350	31
20	56	1105	-90	31
21	79	1344	371	31
-13	107	382	396	31
-21	108	-769	412	31
-24	44	-1261	186	31
28	-37	-851	-1042	31
54	-37	373	-1992	31
37	87	465	-447	31
69	180	75	698	31
158	265	-59	395	31
135	388	-460	21	31
-52	456	-231	-383	31
-166	409	-458	32	31
-235	-9	-738	90	31
-252	-507	-297	505	31
-201	-709	-103	-39	31
-75	-677	330	139	31
121	-524	490	307	31
155	-389	263	-302	31
94	-220	80	40	31
68	-93	-39	-275	31
75	26	80	178	31
94	140	250	180	31
107	194	127	436	31
169	266	38	880	31
81	311	1	233	31
-52	313	-68	-150	31
-94	252	186	-202	31
-172	110	36	304	31
-181	-137	-310	420	31
-120	-306	-308	-44	31
18	-277	59	-136	31
55	-245	396	-89	31
0	-198	376	-923	31
11	-113	443	-1303	31
14	-24	111	-155	31
4	59	-356	130	31
-43	128	-276	146	31
-72	209	-8	130	31
-102	217	98	408	31
-77	205	-38	-183	31
-59	188	-279	-1448	31
-75	90	-457	-15	31
-26	-2	-343	931	31
14	-85	-294	873	31
127	-117	-250	992	31
202	-62	39	515	31
174	-39	430	-413	31
133	-1	951	-873	31
59	62	1014	-345	31
55	98	1190	-490	31
70	122	1097	-405	31
-15	115	-28	125	31
-97	88	-913	352	31
-113	45	-1721	645	31
-103	-19	-1546	223	31
-98	-134	-585	-474	31
-31	-186	-349	-327	31
96	-136	-302	240	31
150	0	-319	-210	31
199	241	151	-193	31
148	361	221	196	31
-42	447	48	69	31
-142	533	268	194	31
-181	434	209	477	31
-238	150	287	871	31
-266	-296	290	289	31
-181	-617	489	-745	31
-21	-752	480	-877	31
140	-838	145	-69	31
266	-742	-36	228	31
230	-486	54	-193	31
111	-269	303	181	31
34	-106	72	742	31
-42	57	-122	267	31
-122	102	-52	-756	31
-143	130	367	-1019	31
-99	191	737	-185	31
-86	217	435	426	31
-46	245	-229	236	31
6	232	-805	198	31
40	242	-264	185	31
110	283	735	386	31
87	338	451	243	31
6	350	-514	-7	31
-31	286	-1297	549	31
-31	145	-1835	875	31
7	-76	-854	84	31
-14	-258	396	-1575	31
-29	-393	414	-1471	31
74	-362	368	309	31
143	-171	97	1134	31
130	-7	-72	1159	31
122	105	21	-136	31
36	172	245	-1535	31
-42	193	812	-905	31
-24	207	1631	-353	31
-39	231	1620	-648	31
-25	250	-108	-440	31
-60	215	-1262	-383	31
-180	42	-1842	158	31
-185	-126	-1740	666	31
-175	-262	-366	478	31
-145	-411	-66	469	31
-12	-500	60	281	31
30	-437	284	269	31
22	-193	294	324	31
75	-80	536	401	31
117	-6	412	421	31
73	97	295	351	31
28	93	63	79	31
54	140	53	-189	31
24	139	205	89	31
-7	134	647	-102	31
6	118	1534	-52	31
38	64	1331	109	31
69	62	-115	-152	31
63	62	-1518	1177	31
89	80	-2185	1200	31
36	72	-1486	-1068	31
-85	64	-223	-2239	31
-119	68	289	-1356	31
-135	114	481	130	31
-94	173	747	-24	31
-64	112	1372	-481	31
-93	14	1352	13	31
4	-85	407	588	31
51	-145	-379	739	31
3	-125	-943	123	31
12	-107	-622	-822	31
-4	-102	-371	-286	31
10	-131	-745	546	31
71	-149	-701	85	31
85	-81	-491	480	31
43	52	-139	600	31
13	229	178	105	31
59	372	462	-45	31
60	335	917	-69	31
-11	181	1313	326	31
-68	67	791	259	31
-96	-28	-405	734	31
-86	-192	-1143	923	31
-26	-341	-1464	-501	31
87	-289	-172	-1845	31
92	-219	1094	-840	31
110	-148	734	-14	31
111	-3	471	-1501	31
19	202	-453	-343	31
36	411	-766	750	31
-31	320	-385	423	31
-141	132	-561	852	31
-158	-42	-100	622	31
-100	-249	66	679	31
-37	-432	56	350	31
-64	-610	176	-429	31
-98	-581	390	-1007	31
-91	-414	777	-335	31
-2	-192	692	187	31
102	26	479	-204	31
209	126	540	72	31
204	177	534	502	31
73	193	-145	1273	31
20	201	-663	1120	31
14	226	-1397	177	31
21	309	-1580	-1180	31
-16	406	-200	-1198	31
-57	421	148	488	31
-56	330	191	-228	31
-138	174	526	54	31
-183	5	756	539	31
-98	-203	1576	-676	31
-17	-384	913	-983	31
46	-431	-445	-709	31
42	-272	-989	636	31
50	-34	-1235	294	31
95	19	-465	-343	31
49	-17	195	-114	31
1	14	-358	-1031	31
4	79	-568	-388	31
77	62	-230	1239	31
86	-31	-67	1387	31
48	-19	-161	1781	31
34	92	-261	1168	31
-24	175	-15	-814	31
-98	215	405	-2075	31
-162	257	916	-264	31
-145	268	1007	1838	31
-108	186	891	1011	31
-70	66	578	1044	31
-49	188	352	415	31
-26	251	583	-127	31
76	-98	24	-938	31
154	-355	-556	-1469	31
25	-557	-905	-156	31
-7	-540	-1619	-279	31
109	-367	-1228	-117	31
21	-341	-413	-343	31
72	-93	-128	-242	31
80	-12	245	-120	31
-10	55	396	-546	31
-8	100	334	108	31
-98	-14	311	110	31
-97	77	225	-185	31
-62	143	334	143	31
68	249	310	718	31
57	253	113	1107	31
43	239	163	906	31
147	254	95	-465	31
-17	173	346	-1848	31
-54	171	534	-830	31
9	142	194	608	31
52	87	125	216	31
52	-105	-176	-377	31
21	-277	-381	-496	31
105	-269	-288	255	31
34	-267	-507	-257	31
-108	-162	-522	-626	31
-145	170	-150	674	31
-135	393	234	333	31
-147	180	500	-240	31
-168	-182	623	-709	31
-108	-341	84	-303	31
1	-137	-290	82	31
77	-128	-404	674	31
64	-294	-944	1455	31
54	-129	-543	-143	31
94	-123	570	-1231	31
69	17	1598	-1717	31
59	93	1855	-1220	31
7	-11	178	712	31
-68	87	-1406	608	31
-60	-27	-1981	350	31
-31	42	-1728	619	31
-45	284	-678	-200	31
-178	445	-385	-249	31
-259	297	-65	147	31
-191	-166	307	969	31
-42	-307	349	1236	31
190	-125	482	40	31
401	49	606	-1354	31
303	87	754	-1081	31
62	224	937	931	31
123	213	1377	1303	31
117	210	812	1613	31
8	176	-497	1259	31
-46	-163	-1322	-922	31
-132	-328	-1672	-2211	31
-50	-383	-822	-2202	31
10	-272	71	-1028	31
80	-191	112	146	31
97	-165	251	338	31
65	-58	141	-19	31
42	50	127	-219	31
-57	225	280	-6	31
-82	410	208	890	31
-209	583	232	922	31
-269	244	200	559	31
-223	-303	156	-94	31
-219	-430	254	-725	31
-19	-276	390	66	31
271	-124	279	34	31
309	-71	236	-17	31
35	138	198	593	31
10	419	114	989	31
118	463	175	883	31
-14	69	659	-446	31
-69	-404	1579	-1593	31
-93	-411	674	-802	31
29	-212	-1131	217	31
216	-179	-1960	348	31
128	-44	-2001	175	31
4	-6	-438	-213	31
-19	-95	182	476	31
-117	-7	-64	897	31
-195	-82	216	436	31
-127	-55	113	-340	31
-79	29	485	-875	31
-87	50	677	238	31
35	165	858	545	31
112	189	794	831	31
9	202	275	617	31
-27	70	173	-1632	31
-69	2	-240	-1257	31
-54	204	-517	482	31
12	284	-745	-599	31
-64	249	-826	-760	31
-70	175	-337	267	31
-34	-100	-269	174	31
-19	-361	-274	456	31
24	-368	-187	455	31
49	-122	-87	926	31
68	-22	435	262	31
67	-82	924	-1092	31
42	-65	806	-1385	31
44	-90	145	-258	31
46	-22	-323	522	31
21	12	-663	21	31
36	93	-606	58	31
29	198	-310	-469	31
-60	153	0	323	31
-86	38	355	595	31
-29	-131	-37	348	31
-46	-161	-307	469	31
-146	-112	-381	-395	31
-151	-52	42	244	31
-100	29	588	473	31
-17	65	401	-218	31
181	60	443	-86	31
37	-46	-97	-440	31
-252	6	-553	-363	31
-126	119	-379	393	31
160	71	-503	332	31
275	126	-409	664	31
2	203	-204	1040	31
-178	436	-214	896	31
-117	771	-211	550	31
88	576	-13	-130	31
328	-155	330	-202	31
310	-684	709	29	31
322	-662	853	23	31
286	-544	642	-1606	31
86	-474	549	-2274	31
-119	-78	239	-279	31
-216	88	-422	464	31
-193	-90	-696	439	31
-57	-140	-644	984	31
77	-216	-573	833	31
197	-121	-342	949	31
153	28	16	26	31
-18	206	247	-749	31
73	371	631	-11	31
65	338	1287	54	31
-39	276	1452	231	31
-28	265	480	437	31
-222	319	-727	125	31
-320	87	-1643	-226	31
-279	-302	-1714	-717	31
-264	-509	-649	-261	31
-66	-336	-236	-6	31
109	-117	-208	198	31
58	-171	74	23	31
-2	27	186	-823	31
-15	4	315	-1005	31
-34	-154	451	-418	31
2	-31	620	112	31
31	55	298	368	31
41	242	-29	736	31
-34	308	-2	996	31
-197	273	290	774	31
-260	54	593	-586	31
-158	-210	343	-885	31
155	-77	-40	-442	31
328	-17	-365	-737	31
109	-191	-43	-784	31
40	-167	-51	-1110	31
109	-61	-497	-576	31
81	-41	-304	253	31
33	38	-217	328	31
-27	120	59	454	31
-24	251	50	295	31
-54	217	110	307	31
-26	69	919	185	31
20	165	917	-336	31
9	292	425	-149	31
11	117	-10	501	31
-39	-165	-880	176	31
-69	-172	-779	-327	31
-98	-189	-232	-585	31
-54	-221	-378	-186	31
57	-150	-82	383	31
147	-175	-7	269	31
123	-74	-1	229	31
43	88	89	-84	31
4	170	-122	476	31
-94	169	-254	1028	31
-165	72	-481	620	31
-199	41	-226	182	31
-125	8	-72	-1126	31
14	-131	121	-1163	31
-19	-260	525	-389	31
75	-179	733	-173	31
256	-32	1190	726	31
191	21	1151	-163	31
92	59	133	-1004	31
5	32	-495	-625	31
-55	35	-659	872	31
-53	63	-929	2022	31
-104	-6	-535	177	31
-115	-60	-696	-1173	31
-72	-31	-611	-911	31
17	147	294	275	31
90	451	780	566	31
25	519	944	-149	31
-115	297	494	113	31
-160	37	-69	698	31
-125	-258	-631	286	31
-72	-492	-643	-676	31
47	-438	-175	-110	31
194	-214	432	-390	31
195	-114	749	-618	31
62	46	153	501	31
103	128	-66	117	31
31	96	-277	-227	31
-67	144	-452	-93	31
-11	69	-122	119	31
-204	22	-440	470	31
-274	-64	-303	794	31
-196	-123	180	1458	31
-57	-15	302	1464	31
291	97	478	752	31
383	208	128	-505	31
90	173	-141	-2018	31
30	-112	-321	-1847	31
55	-294	-371	-445	31
-60	-45	-41	201	31
-7	149	372	196	31
-37	-86	593	287	31
1	-205	272	451	31
45	-35	2	123	31
67	-17	4	-430	31
89	1	1048	-931	31
-27	20	1280	-583	31
-18	-77	-373	-36	31
-75	-59	-1083	-175	31
-57	-9	-1745	235	31
11	59	-1641	670	31
6	51	-525	720	31
12	17	-484	1165	31
-49	31	87	871	31
-7	6	482	-78	31
-21	11	726	-805	31
-99	-3	1420	-266	31
-63	112	1040	-252	31
-52	155	252	-1004	31
-100	-47	-264	-511	31
-72	-65	-623	-76	31
-16	75	-611	1004	31
43	73	-87	777	31
114	-60	208	-600	31
75	-115	403	-360	31
41	-55	459	234	31
26	21	229	794	31
36	33	345	-33	31
31	14	148	-1110	31
-69	69	-242	-512	31
-93	98	-254	173	31
-80	53	424	348	31
-33	6	1071	486	31
-16	-93	283	501	31
-31	-282	-504	766	31
29	-250	-1324	1243	31
1	-62	-1716	594	31
9	-19	-451	-871	31
-54	42	-168	-1627	31
-87	30	-251	-794	31
146	29	-24	-281	31
27	133	-205	-181	31
-122	120	98	-224	31
-95	27	390	-590	31
-210	9	534	98	31
-6	42	358	901	31
301	39	191	1489	31
240	131	247	1078	31
138	70	251	-361	31
145	-101	658	-2112	31
63	-64	902	-1125	31
47	17	264	443	31
-11	94	-375	-150	31
-91	70	-667	83	31
-73	-21	-721	116	31
-86	-29	-210	464	31
-51	11	43	353	31
-36	-13	98	73	31
-21	22	101	81	31
2	128	-66	221	31
-28	88	277	804	31
-97	56	1047	299	31
-75	-7	1409	-234	31
102	65	759	-792	31
160	512	-409	-217	31
5	661	-1692	117	31
-193	26	-1998	-673	31
-315	-682	-1060	6	31
-231	-704	-345	211	31
-160	-477	-82	161	31
-7	-439	89	340	31
397	-275	254	176	31
446	-42	307	500	31
281	99	307	382	31
242	131	234	113	31
102	62	166	-452	31
8	9	509	-962	31
-9	-86	806	-395	31
-108	-41	594	-158	31
-86	69	113	34	31
-16	161	-406	443	31
2	188	-592	613	31
-3	95	-229	1421	31
-89	257	-160	1456	31
-145	416	-270	-55	31
-280	297	-72	-1539	31
-458	-32	-35	-1503	31
-511	-371	-93	-458	31
-254	-317	-9	-895	31
53	-133	87	-683	31
189	-101	99	501	31
397	-21	264	-277	31
416	83	217	26	31
362	100	7	243	31
348	143	62	64	31
365	123	73	615	31
75	-70	72	456	31
-331	-141	67	505	31
-225	-75	29	-79	31
-85	-13	105	-626	31
-155	-49	99	-201	31
-363	-90	-4	214	31
-524	-54	-8	21	31
-533	-375	-189	130	31
-178	-213	-311	150	31
624	312	-303	198	31
799	84	-297	289	31
483	185	74	-210	31
244	247	728	-376	31
24	-91	1126	-304	31
38	-37	543	-4	31
-100	-69	-244	251	31
17	-52	-416	238	31
41	122	-393	559	31
54	181	-232	753	31
91	139	-252	481	31
-178	85	-623	32	31
-87	-3	-795	-514	31
-150	50	-527	-643	31
-203	244	-196	-749	31
-169	255	119	-389	31
-118	41	432	-607	31
26	-221	562	-317	31
8	7	519	868	31
-35	347	226	395	31
-133	16	-110	275	31
-211	-611	-309	-341	31
-220	-734	-284	-709	31
85	-435	32	-294	31
244	-394	156	166	31
-2	-123	239	484	31
-107	483	338	40	31
-418	621	203	253	31
-433	229	0	-25	31
-82	-485	-400	75	31
-91	-694	-580	146	31
345	-314	-201	170	31
423	-54	214	224	31
-290	-131	227	-23	31
-477	-205	59	244	31
-618	122	-129	169	31
-91	444	-267	140	31
1022	938	-49	-360	31
866	627	508	-468	31
400	-2	1173	-277	31
189	294	962	-44	31
251	145	256	607	31
365	-141	-122	978	31
139	-267	-876	754	31
150	-65	-659	-731	31
-14	123	61	-1219	31
-1	156	-280	-866	31
-52	366	-226	-206	31
-233	96	-409	537	31
-243	251	-539	-139	31
-401	385	-276	-335	31
-290	-128	-375	-403	31
-210	-683	1	-9	31
-151	-779	-38	400	31
-376	-267	19	272	31
-404	17	269	312	31
209	-87	156	90	31
408	-254	266	421	31
404	-93	168	552	31
247	-7	219	596	31
-130	-277	320	154	31
-504	-290	152	-771	31
-698	-264	55	-983	31
-357	-170	-53	-218	31
174	380	-106	365	31
944	491	229	83	31
910	148	701	117	31
-25	416	826	276	31
26	413	394	676	31
-252	220	-173	477	31
-508	-32	-706	-372	31
-308	-260	-970	-1407	31
-231	226	-495	-529	31
259	112	-497	1626	31
245	17	-681	680	31
514	113	-213	-504	31
242	-230	55	-778	31
-85	-453	159	-1270	31
113	-570	365	-1202	31
-132	-74	567	239	31
16	219	495	984	31
-82	163	412	402	31
-93	105	704	-270	31
-87	-64	861	-819	31
-143	18	284	127	31
86	-86	-565	202	31
209	84	-1057	272	31
144	207	-1054	456	31
-122	111	-414	218	31
-34	92	46	563	31
-67	-136	252	316	31
-151	-154	338	80	31
-213	-104	67	-148	31
-339	4	-22	-13	31
-181	57	-46	80	31
14	95	-64	-512	31
51	245	-60	-303	31
-151	280	-134	166	31
-12	102	-135	347	31
62	-264	-21	286	31
136	-129	119	-110	31
146	71	68	-101	31
-178	-11	17	-132	31
-60	104	9	-195	31
-66	62	73	138	31
48	51	168	658	31
-9	-54	272	908	31
-98	-289	292	1007	31
234	-200	83	779	31
330	-201	648	-193	31
324	-108	1444	-1507	31
14	37	658	-1183	31
-24	31	-425	158	31
-6	123	-1271	-208	31
-58	108	-2070	-1330	31
-25	56	-994	-1358	31
-121	13	-207	28	31
-24	-44	-393	198	31
-140	-95	105	278	31
-240	-125	229	352	31
-294	-53	315	-90	31
-211	22	74	365	31
180	115	-31	-35	31
84	184	272	-16	31
-257	117	335	224	31
-26	-22	543	285	31
245	42	448	321	31
269	227	238	41	31
222	275	71	-38	31
51	198	-148	-23	31
-19	-31	-245	315	31
-55	-289	-52	93	31
-58	-312	246	39	31
-153	65	481	211	31
-401	333	208	118	31
-367	60	-295	3	31
-95	-464	-500	-4	31
62	-673	-691	292	31
243	-173	-441	322	31
279	396	-187	563	31
266	399	4	608	31
-74	118	561	635	31
-277	-60	1226	-92	31
52	64	946	-1481	31
436	22	-55	-1668	31
741	-264	-527	-1053	31
143	-14	-916	-67	31
24	495	-709	762	31
152	376	-399	989	31
-79	-280	-285	304	31
72	-520	591	-1537	31
-75	-442	1382	-930	31
-21	-318	916	963	31
-120	19	-107	173	31
-226	-55	-898	112	31
-100	-19	-1427	73	31
32	250	-598	187	31
39	287	225	366	31
-284	318	348	-253	31
-291	-34	620	276	31
-235	-163	570	137	31
-11	-71	389	-45	31
157	-119	-11	-614	31
194	17	-280	-553	31
41	-45	-349	160	31
-223	16	-395	154	31
-42	171	43	820	31
6	211	252	544	31
126	199	-131	-289	31
222	-21	-372	-694	31
100	-27	-547	-103	31
-54	92	-387	636	31
-90	95	192	239	31
-117	-148	525	423	31
-108	-495	396	602	31
-6	-443	-123	475	31
-78	-191	-353	370	31
27	8	-222	-236	31
77	221	289	-941	31
105	276	1013	-1547	31
1	170	750	-508	31
-246	120	263	-9	31
-197	85	315	-365	31
3	46	57	193	31
95	16	16	-333	31
65	47	-107	266	31
31	217	-755	465	31
-124	287	-843	161	31
-59	92	-401	708	31
-6	45	-145	390	31
-31	328	-235	58	31
-112	170	-148	-713	31
-578	-418	-154	-585	31
-525	-382	-295	-12	31
319	-136	146	131	31
1009	-311	866	659	31
506	-335	1073	607	31
162	-34	258	281	31
264	135	-391	-185	31
-321	-104	-654	-337	31
-205	-158	-570	98	31
8	36	53	-84	31
14	11	-41	-120	31
-95	215	335	727	31
-102	590	870	1105	31
121	486	325	-352	31
163	79	-308	-1936	31
284	-136	-954	-1580	31
6	-231	-1198	74	31
-128	-302	-514	941	31
-113	-310	6	1145	31
137	-347	45	896	31
237	-206	362	-477	31
-56	165	409	-861	31
-19	430	365	-605	31
-89	340	486	426	31
-231	-84	627	1304	31
-317	-116	687	645	31
-177	-155	281	-221	31
-2	-487	9	-1209	31
-154	-241	-184	-1731	31
140	-167	-307	-770	31
178	-212	-153	275	31
19	-55	-210	249	31
185	-120	-221	1049	31
55	16	-90	1087	31
39	101	-102	535	31
-4	182	467	269	31
-47	224	1044	72	31
5	49	863	608	31
16	58	744	506	31
-1	261	196	-87	31
-131	351	-1134	-709	31
-102	226	-1561	-620	31
8	176	-890	-809	31
-2	14	-525	-820	31
-68	-87	-285	-666	31
0	-14	-93	-285	31
31	-14	-365	377	31
-21	28	-398	-464	31
-77	-6	-36	196	31
-143	88	-54	1371	31
-116	365	-357	1015	31
-42	507	-139	334	31
25	128	393	9	31
-32	-397	763	-130	31
-110	-330	1018	-800	31
-104	-116	1551	-870	31
-19	-150	1921	-222	31
50	-120	778	-123	31
112	-30	-655	-82	31
98	-118	-1745	492	31
13	-95	-2213	352	31
140	43	-1085	190	31
-115	125	-244	-484	31
-264	123	58	-401	31
-133	-192	471	87	31
-133	-322	305	1	31
247	-161	350	385	31
278	24	385	-2	31
151	117	448	65	31
76	-31	441	446	31
-7	-53	309	332	31
95	-83	114	-602	31
97	-182	-111	-934	31
138	-67	-73	-411	31
-21	151	72	308	31
42	201	197	829	31
8	95	163	50	31
-204	73	283	-418	31
-170	-33	-21	-144	31
-243	-102	-372	101	31
-135	214	-333	-84	31
214	480	-591	20	31
486	-14	-404	118	31
313	-548	180	184	31
165	-141	982	881	31
85	113	1603	559	31
-13	29	649	-32	31
-36	108	-843	-433	31
-172	-9	-1645	-456	31
-166	-4	-2001	595	31
-100	-36	-912	334	31
13	-90	210	-586	31
-68	-90	336	-784	31
-130	-82	830	-893	31
-76	79	750	-124	31
-93	326	357	267	31
-55	785	113	776	31
-49	598	-294	1816	31
31	-363	-149	1322	31
10	-581	90	-212	31
-6	-166	-12	-1939	31
36	4	12	-1970	31
-33	117	25	-1070	31
-49	100	-76	-59	31
-55	-42	44	152	31
-87	-257	125	-656	31
-6	-329	409	-251	31
0	-231	899	111	31
-74	-303	533	444	31
-70	-264	-33	1259	31
-62	-87	-580	1338	31
-69	97	-956	288	31
-128	217	-428	41	31
-186	534	-665	388	31
-120	704	-778	135	31
135	41	-315	-303	31
158	-379	-353	-1147	31
353	-329	88	-701	31
469	-294	357	-21	31
112	-64	471	-31	31
88	-112	705	332	31
-19	-104	851	165	31
7	1	778	41	31
42	-137	360	469	31
-168	4	-276	1459	31
-32	19	-931	1814	31
133	-17	-927	809	31
-15	211	-345	-1163	31
-220	152	500	-2287	31
-108	133	785	-1361	31
-38	345	142	-500	31
27	196	-557	-281	31
-54	-187	-742	196	31
-26	-209	-725	91	31
151	-55	-112	-22	31
4	-27	362	90	31
67	75	285	105	31
14	142	529	272	31
21	123	298	257	31
65	88	83	199	31
-55	-2	21	317	31
-133	45	72	1084	31
-388	200	339	1020	31
-468	218	434	-446	31
-343	57	452	-1178	31
-2	-75	47	-852	31
82	93	-304	298	31
31	-2	-416	622	31
474	-317	-264	676	31
491	-22	125	574	31
198	-118	494	-855	31
143	-333	991	-1169	31
186	-171	572	-294	31
143	-244	-357	-217	31
6	-25	-833	209	31
-92	77	-1518	774	31
-167	212	-953	567	31
15	52	-134	337	31
81	-307	-362	116	31
-3	-36	-127	115	31
-27	74	41	-925	31
19	176	138	-620	31
60	166	100	153	31
-10	113	64	124	31
-105	421	301	1006	31
-135	448	396	534	31
-39	139	373	-134	31
-75	-220	267	-1065	31
-165	-222	359	-857	31
-194	-43	714	289	31
-206	-17	1161	-347	31
-151	-266	487	-25	31
-49	-760	-491	236	31
118	-659	-1028	188	31
175	-264	-1346	480	31
52	-74	-568	204	31
6	166	-114	95	31
2	161	-6	-12	31
-14	73	189	-89	31
21	85	128	23	31
14	142	475	284	31
4	252	927	641	31
-31	375	1170	1141	31
-62	469	750	519	31
-55	188	-488	-1366	31
-87	-235	-1649	-2073	31
-7	-206	-1455	-948	31
171	91	-204	31	31
150	341	813	289	31
22	402	819	618	31
38	-86	154	761	31
60	-448	-176	620	31
42	-188	-495	532	31
24	34	-368	-84	31
-34	-1	-213	-790	31
-38	-210	-441	-903	31
-15	-162	-288	-628	31
-33	-15	-173	50	31
-22	-83	98	319	31
15	6	428	453	31
90	47	530	651	31
90	98	453	352	31
-29	95	256	-159	31
-43	9	317	-138	31
1	84	538	629	31
-21	-6	268	177	31
-35	-127	-240	-288	31
-27	-144	-789	-64	31
-9	-14	-1108	-201	31
-25	122	-443	-80	31
-137	73	177	-1155	31
-134	-4	306	-739	31
87	-52	78	280	31
68	-49	-155	19	31
-63	-174	-64	229	31
-26	-232	-1	-626	31
-128	-23	407	-310	31
-140	79	280	272	31
-62	-6	-88	268	31
44	45	20	454	31
145	41	-89	-5	31
31	82	94	-230	31
-1	322	135	-151	31
69	238	45	768	31
52	192	245	1188	31
9	164	-62	674	31
6	-133	-44	-314	31
60	-140	643	-1355	31
126	-42	953	-481	31
125	-84	580	223	31
109	-61	-22	-136	31
17	-73	-753	264	31
-87	-56	-763	109	31
-65	-115	558	333	31
-74	-60	1225	542	31
-102	310	280	108	31
-125	473	-950	-6	31
-66	-22	-1778	-473	31
-31	-649	-1908	-483	31
-56	-385	-876	-355	31
-24	-47	-141	-186	31
-3	-75	-2	257	31
90	41	141	-99	31
164	-40	296	218	31
54	82	637	784	31
-48	196	929	165	31
-45	36	1154	354	31
54	-42	588	-143	31
75	-26	-49	-1002	31
-60	75	-444	-39	31
-42	70	-585	95	31
-50	86	-292	-65	31
-42	54	-172	102	31
31	79	27	-401	31
2	158	81	-226	31
6	-1	90	42	31
-13	-60	176	110	31
22	115	102	155	31
78	183	10	-286	31
57	-26	3	-78	31
-9	-244	-36	261	31
-67	-123	6	89	31
-64	269	155	129	31
-75	386	199	-27	31
-105	4	330	-65	31
-49	-243	623	60	31
77	-136	785	145	31
63	-250	434	213	31
30	-418	105	126	31
87	-273	19	423	31
119	-152	-397	862	31
103	21	-545	688	31
-19	123	-575	-198	31
-61	87	-811	-1371	31
-7	1	-578	-1259	31
23	-100	-749	3	31
37	50	-737	117	31
63	62	93	-127	31
79	97	440	-224	31
-25	156	240	-271	31
-101	67	-62	208	31
-98	114	-277	635	31
-77	42	-301	550	31
-73	7	140	433	31
-76	-37	347	271	31
-41	-97	322	-69	31
19	-35	461	178	31
37	-86	250	135	31
25	-60	-12	-52	31
-5	-12	-11	-1128	31
-60	-21	357	-1930	31
-5	36	382	-440	31
12	72	93	309	31
-17	133	-80	302	31
7	194	-206	646	31
7	79	-79	276	31
11	-121	-155	-117	31
-32	-97	-195	-188	31
-31	60	-50	204	31
-29	203	200	590	31
-39	173	772	219	31
89	-118	1389	269	31
120	-158	1299	430	31
80	-56	243	-115	31
110	-126	-881	-409	31
57	-25	-1831	-95	31
22	90	-1867	780	31
15	206	-931	925	31
6	361	-485	-26	31
-44	297	-192	-1033	31
-176	272	266	-1136	31
-173	116	380	-129	31
-92	-312	375	133	31
-30	-551	396	183	31
-7	-489	544	154	31
-49	-204	538	-118	31
-64	192	321	-151	31
-11	106	78	-62	31
64	-386	-120	-87	31
47	-394	-31	-195	31
34	-138	-183	268	31
27	45	-252	196	31
2	176	-95	137	31
47	-27	-23	157	31
51	-128	233	112	31
22	5	644	137	31
57	24	1383	-89	31
70	115	1296	65	31
8	120	-90	170	31
-31	98	-1347	178	31
-58	249	-1976	10	31
-39	131	-1469	-123	31
16	-70	-186	330	31
62	25	148	1229	31
87	93	181	785	31
42	59	742	-1027	31
-52	96	855	-1514	31
-87	50	252	-1296	31
-45	9	-352	-963	31
-73	-14	-607	-113	31
-82	-22	-451	226	31
-27	12	-82	613	31
-6	2	-127	347	31
2	91	129	84	31
9	102	224	281	31
-7	160	87	216	31
-26	300	228	53	31
-24	224	190	-173	31
-19	-12	418	44	31
-8	-229	552	80	31
34	-125	530	84	31
67	-108	259	64	31
80	-257	-107	19	31
86	-117	-390	84	31
41	-75	-482	117	31
-47	-52	-298	21	31
-51	78	-380	9	31
1	74	-290	-48	31
1	72	-156	-252	31
22	-31	-47	-17	31
61	-9	126	19	31
100	78	391	5	31
113	63	915	130	31
1	133	707	63	31
-156	-64	-34	16	31
-209	-249	-538	-90	31
-32	-100	-939	-46	31
187	-119	-785	69	31
70	-161	-206	115	31
-12	-57	84	261	31
72	-62	143	503	31
1	27	381	92	31
-35	112	586	-632	31
-56	155	282	-443	31
-16	201	42	669	31
70	120	-228	1531	31
-4	174	-560	648	31
-47	74	-274	-681	31
-80	-136	-143	-1783	31
-158	-85	-133	-1617	31
-207	-140	48	282	31
-195	-186	60	393	31
-7	-98	167	305	31
203	-156	284	495	31
209	-214	318	-193	31
68	-219	580	-191	31
47	-176	943	269	31
62	-107	492	611	31
-3	-42	-208	277	31
-9	22	-797	-176	31
-47	57	-1204	-591	31
-19	132	-413	-1051	31
7	249	25	-951	31
-7	459	-167	44	31
-13	422	50	64	31
-32	-99	65	263	31
22	-486	224	203	31
24	-342	381	-118	31
-2	-20	354	581	31
-42	78	154	345	31
-21	87	-217	471	31
23	62	-125	216	31
-21	30	13	-169	31
-40	39	-54	-408	31
-46	-36	-49	-274	31
-24	27	-201	165	31
-21	140	-244	44	31
31	118	119	509	31
67	135	484	273	31
19	128	494	12	31
87	-1	60	118	31
66	144	-427	142	31
3	163	-636	470	31
-14	-330	-588	383	31
-47	-352	-168	26	31
3	-123	515	-615	31
-4	-124	844	-695	31
-47	9	509	-21	31
-29	15	30	195	31
-17	-19	-389	-138	31
-39	-16	-481	-315	31
-38	-93	-217	-482	31
-24	-89	-216	-437	31
11	-94	-281	182	31
74	-49	-148	530	31
82	24	-82	585	31
71	71	-115	439	31
-3	145	7	102	31
-165	162	277	-404	31
-151	133	481	-587	31
-34	151	497	259	31
-15	260	793	555	31
-38	222	913	453	31
-90	-5	1	608	31
-49	-145	-765	139	31
-113	-145	-1241	-151	31
-175	-252	-1329	-720	31
55	-375	-205	-1661	31
254	-176	505	-415	31
190	37	308	957	31
11	179	249	-125	31
98	215	317	-385	31
186	34	268	-42	31
89	31	-45	-173	31
9	63	-87	-206	31
-21	84	65	-345	31
29	186	383	64	31
-26	287	858	273	31
0	208	510	511	31
9	-225	-177	615	31
-137	-413	-777	-363	31
-135	-267	-979	-876	31
-128	-162	-534	113	31
-82	-167	-365	506	31
85	-77	-184	166	31
177	55	74	446	31
63	92	78	186	31
-49	215	199	-9	31
-19	208	232	23	31
-34	77	204	-239	31
-38	-39	132	-338	31
-74	19	36	-218	31
-34	77	141	110	31
115	-58	316	95	31
68	-101	315	70	31
-6	-176	82	72	31
-2	-39	-123	1	31
-37	242	-278	70	31
-22	373	-174	68	31
-59	401	18	108	31
-171	0	128	119	31
-216	-480	305	131	31
-178	-588	208	44	31
17	-482	39	-145	31
282	-204	-189	67	31
445	-33	-395	269	31
292	7	-182	42	31
37	80	-10	-50	31
-46	63	-59	-67	31
-93	100	-37	361	31
-100	57	-103	898	31
-133	-17	-178	850	31
-176	71	-32	196	31
-150	159	279	-1578	31
-242	289	657	-2063	31
-11	304	705	-39	31
459	2	270	440	31
185	-136	-170	109	31
52	27	-216	318	31
140	37	-154	226	31
-68	73	-335	760	31
-89	-39	-525	300	31
-267	-188	-421	4	31
-332	7	-60	90	31
-344	67	318	-138	31
-411	-31	365	-45	31
-274	-70	67	-140	31
293	119	-113	-131	31
658	267	-194	-499	31
317	6	-108	-273	31
350	-122	-45	-459	31
354	56	-229	-1063	31
267	115	-156	-38	31
103	148	-31	231	31
-128	185	-12	183	31
-14	98	24	297	31
-107	9	1	111	31
-59	-115	7	362	31
-46	-157	21	436	31
-45	-52	-27	507	31
6	72	-26	90	31
-58	-9	50	-636	31
-57	-294	97	-646	31
-116	-399	145	-230	31
-75	-272	169	-30	31
-63	-160	253	610	31
-22	-101	174	636	31
-8	2	-106	69	31
-49	11	-121	-468	31
-21	79	118	-938	31
-37	123	616	-322	31
-60	74	694	383	31
-82	113	21	744	31
-74	68	-438	12	31
-72	95	-894	-517	31
-62	82	-863	-183	31
-53	28	-151	95	31
-51	24	-62	187	31
-21	-1	-61	26	31
2	76	88	65	31
33	42	300	4	31
49	-62	613	231	31
48	-88	499	329	31
36	-37	362	297	31
43	12	29	-80	31
28	7	-507	-454	31
-10	22	-466	-16	31
15	43	6	174	31
26	252	226	-28	31
-8	499	106	125	31
-39	317	-166	171	31
-50	-114	-515	-69	31
-22	-193	-472	-200	31
-57	169	-83	-439	31
-147	210	80	-152	31
-185	-297	69	176	31
-165	-465	90	239	31
-12	-389	92	204	31
161	-448	110	16	31
278	-101	103	-7	31
182	115	93	-203	31
32	32	70	-77	31
34	150	6	67	31
-85	63	-19	-23	31
-40	-1	-7	-9	31
-2	82	59	-29	31
-56	212	119	71	31
-128	90	59	155	31
-387	-226	15	226	31
-380	-121	29	257	31
22	-132	38	-28	31
372	-232	-26	-103	31
313	-156	-129	-24	31
393	-92	-119	-36	31
186	-7	-77	607	31
-80	122	-2	801	31
215	375	12	142	31
230	505	45	-173	31
348	227	224	-188	31
87	-249	320	-959	31
-123	-257	322	-1915	31
-9	-24	365	-1590	31
-224	-101	108	-369	31
-92	-96	-294	188	31
-140	44	4	-80	31
-199	52	194	511	31
-146	-11	0	531	31
-106	8	-234	269	31
53	88	-600	442	31
101	121	-482	500	31
59	115	-181	662	31
-57	-48	62	358	31
2	-178	108	431	31
11	-92	11	337	31
11	-59	-49	86	31
12	-16	-9	-94	31
-31	73	616	-252	31
24	99	859	-75	31
44	86	291	-102	31
39	55	-395	15	31
-27	128	-1051	26	31
-33	161	-891	26	31
-73	130	-249	-49	31
-96	278	-93	-178	31
-75	448	44	-98	31
-92	176	33	-267	31
-64	-292	22	-425	31
-69	-345	107	-193	31
-24	-221	-11	209	31
34	-356	-6	665	31
64	-345	-87	1043	31
44	-3	55	371	31
6	-37	401	-952	31
-62	-146	615	-1137	31
-59	-90	587	-62	31
97	-47	62	186	31
65	97	-279	108	31
-24	-19	-178	121	31
-69	-118	-69	-462	31
-62	-47	-36	-128	31
36	115	-69	16	31
2	264	-90	112	31
-14	92	-36	303	31
-60	-216	-62	152	31
-70	-231	-27	176	31
94	-27	67	-204	31
135	22	95	-108	31
68	54	76	16	31
75	57	3	-126	31
109	95	-12	112	31
18	140	-54	264	31
-11	108	-33	276	31
24	71	-26	166	31
-65	22	19	-325	31
-53	156	182	-462	31
-47	330	217	-175	31
-52	126	142	-200	31
-4	-247	-30	86	31
7	-168	-57	337	31
39	-19	158	526	31
-7	-166	385	602	31
-56	-47	241	-15	31
-29	7	-283	-513	31
41	-76	-437	-542	31
79	120	-77	236	31
69	242	53	564	31
16	221	-60	238	31
-41	-48	-264	-528	31
-67	-355	-550	-1272	31
-96	-270	-333	-133	31
-73	-14	-72	163	31
-72	197	70	-131	31
-131	223	261	373	31
-171	9	234	98	31
-93	-150	234	185	31
34	-59	241	197	31
185	-26	214	154	31
261	-102	-33	260	31
76	-52	-269	296	31
-1	-6	-390	480	31
2	-17	-464	177	31
-51	-19	-64	-470	31
23	-5	158	-899	31
16	29	65	-326	31
-125	1	97	68	31
-157	-22	-22	46	31
16	41	-82	152	31
120	93	-46	75	31
7	133	-82	52	31
-117	260	1	165	31
-22	146	135	340	31
62	-274	115	-21	31
196	-379	132	-348	31
406	-130	269	-218	31
232	0	395	-240	31
48	-6	557	-39	31
-6	42	419	95	31
-144	6	34	24	31
-178	53	-302	328	31
-103	269	-541	373	31
-65	264	-336	410	31
-99	-52	-36	518	31
-132	-294	-12	146	31
-64	-157	62	-307	31
120	23	39	-437	31
115	44	-180	-550	31
24	71	-189	-565	31
-37	99	-40	65	31
-26	207	75	431	31
76	178	85	-291	31
-8	-133	5	-673	31
11	-308	-132	-288	31
27	-313	-299	-107	31
10	-177	-213	197	31
12	58	-145	89	31
-34	69	-132	294	31
4	46	37	863	31
-65	148	93	719	31
-114	287	122	363	31
-211	348	138	-77	31
-200	139	141	-703	31
-123	-264	105	-895	31
-68	-430	37	-434	31
210	-262	21	-181	31
240	-208	4	82	31
49	-7	54	228	31
-21	167	41	234	31
39	55	57	46	31
74	-3	97	-12	31
-27	65	31	390	31
-126	504	29	379	31
-161	558	65	322	31
-39	1	108	115	31
131	-433	82	-346	31
85	-293	-36	-266	31
115	66	-130	42	31
128	-112	-44	39	31
-44	-75	211	89	31
-2	150	269	215	31
-12	72	194	163	31
-12	-240	-4	25	31
130	-406	-158	-224	31
237	-66	-70	-191	31
192	-92	-143	69	31
37	-97	-219	36	31
5	94	-96	-117	31
-73	60	136	-233	31
-64	162	376	-185	31
-113	92	448	-140	31
-202	102	265	-290	31
-192	118	-156	-144	31
-206	282	-455	148	31
-144	748	-434	348	31
-74	385	-466	457	31
30	-461	-436	291	31
62	-699	-194	-9	31
64	-400	-314	105	31
118	-186	-257	135	31
47	-82	-67	-337	31
-174	80	-309	-158	31
-335	8	-177	304	31
-356	-41	59	95	31
-218	-67	57	-303	31
118	-60	193	-565	31
252	-26	252	-583	31
203	2	234	-353	31
285	245	260	175	31
378	246	266	587	31
227	160	220	297	31
49	90	193	-206	31
139	22	191	-904	31
75	269	210	-214	31
-59	232	259	1176	31
-179	-198	175	780	31
-169	-264	34	554	31
-79	160	-69	72	31
-80	343	-199	-786	31
-5	45	-126	-507	31
-64	-406	4	-295	31
-50	-599	47	-356	31
9	-265	69	83	31
94	-12	-30	180	31
196	125	71	119	31
157	181	134	271	31
54	-50	57	85	31
-46	-98	-41	145	31
-36	9	-254	-77	31
-118	104	-306	-155	31
-177	283	-176	24	31
-123	328	-64	87	31
-115	-34	-81	88	31
-117	-283	-114	-38	31
-72	-157	-110	-17	31
-40	-118	-35	21	31
-4	-115	72	71	31
90	-82	140	-34	31
92	-62	128	-2	31
82	11	73	29	31
83	41	80	7	31
67	57	136	97	31
51	100	220	170	31
9	151	173	195	31
-45	163	-16	110	31
-62	69	-204	37	31
-55	126	-338	-87	31
-120	456	-268	-386	31
-107	410	-117	-751	31
-65	-273	-31	-347	31
34	-545	169	355	31
130	-314	305	375	31
54	-365	195	190	31
24	-246	-7	199	31
40	-12	-22	166	31
27	16	270	-60	31
-42	145	719	68	31
-93	85	523	337	31
-68	47	-299	165	31
-48	82	-931	-220	31
1	16	-1315	-286	31
55	65	-660	-492	31
92	27	239	-515	31
141	23	211	138	31
148	49	176	71	31
73	40	125	70	31
-16	53	83	172	31
-107	0	12	-27	31
-203	80	-135	-32	31
-241	369	-87	-171	31
-113	387	-100	-88	31
25	-77	4	-90	31
42	-382	47	-43	31
115	-320	55	-143	31
116	-165	165	-259	31
43	-92	199	41	31
47	-11	161	246	31
38	75	149	322	31
-17	36	146	260	31
-87	-15	98	183	31
-72	-74	192	115	31
-27	14	349	99	31
-11	285	334	66	31
32	560	87	11	31
48	823	-219	52	31
19	857	-512	138	31
-27	65	-398	251	31
-59	-995	-27	153	31
-16	-951	57	46	31
55	-537	141	-50	31
77	-644	78	-372	31
50	-329	-11	-301	31
46	-37	80	8	31
80	-75	145	-58	31
67	95	116	-31	31
9	50	-101	24	31
-81	59	-363	-24	31
-90	70	-384	-108	31
-16	43	-154	-297	31
-9	99	-54	-310	31
11	62	-1	-172	31
7	105	84	-42	31
-18	74	117	208	31
-16	52	70	422	31
-24	53	21	318	31
-10	33	27	-94	31
-11	47	12	-422	31
3	22	101	-297	31
19	65	154	36	31
-7	103	124	153	31
-28	71	77	161	31
-50	82	69	100	31
-40	290	113	-56	31
-12	480	-29	3	31
-83	197	-189	-49	31
-76	-375	-230	-36	31
-15	-544	-342	69	31
43	-244	-208	27	31
141	-38	99	70	31
61	37	130	64	31
-21	32	120	23	31
-79	-6	93	-50	31
-79	92	-36	73	31
15	140	-49	232	31
-34	-17	-90	120	31
-11	-180	-167	-11	31
59	18	-75	-144	31
15	296	48	-153	31
-16	140	99	9	31
-9	-262	157	90	31
23	-276	173	-26	31
85	6	139	-56	31
203	-7	-9	19	31
133	10	-124	33	31
-14	85	-61	85	31
22	-5	-6	22	31
-82	19	23	-41	31
-138	-5	11	-58	31
-104	9	30	-107	31
-67	246	4	-6	31
11	661	-38	26	31
105	828	39	-36	31
113	247	31	-143	31
-73	-621	-48	-145	31
-27	-970	-69	-113	31
7	-573	-9	-101	31
-32	-285	6	60	31
42	-191	26	176	31
62	26	111	262	31
77	-4	116	148	31
57	69	127	88	31
14	75	135	227	31
-18	-54	56	227	31
-7	52	-111	64	31
-11	149	-229	-190	31
-21	77	-212	-193	31
-12	-32	-145	-58	31
9	32	-28	-20	31
-2	102	52	-4	31
-60	232	16	-147	31
-76	318	1	-233	31
-58	68	93	-155	31
-65	-195	166	22	31
-95	-220	234	139	31
-88	-108	287	112	31
-57	-37	202	-16	31
139	2	133	-156	31
103	29	53	-13	31
-182	135	-183	127	31
-139	150	-370	40	31
-177	-86	-525	30	31
-77	10	-534	54	31
280	545	-197	0	31
224	542	-36	-80	31
49	-254	-49	-36	31
95	-591	-46	-52	31
33	-307	-32	-188	31
4	-301	35	-36	31
36	-165	28	56	31
-124	11	87	0	31
-169	-90	128	49	31
-175	-57	145	60	31
-130	-140	102	37	31
185	-2	46	6	31
399	146	59	-7	31
196	82	69	27	31
51	173	105	65	31
-1	132	72	45	31
-85	37	72	7	31
1	-92	79	9	31
-16	21	59	-2	31
-90	282	44	9	31
-157	102	24	-5	31
-84	-140	-4	-54	31
-84	-91	-14	-11	31
-135	22	-7	39	31
150	167	-6	60	31
211	548	9	24	31
-72	484	-14	-11	31
-111	-407	-8	20	31
-90	-823	-15	3	31
-86	-320	2	-3	31
62	-6	44	1	31
53	-133	18	13	31
82	-21	-4	31	31
155	-14	-10	21	31
189	-37	2	11	31
72	96	-47	1	31
-292	197	-107	8	31
-394	557	-94	21	31
-392	456	-137	-79	31
-350	-115	-144	-209	31
160	-412	-22	-132	31
626	-340	21	-35	31
311	-117	7	-17	31
55	-70	33	24	31
252	-78	37	5	31
138	-16	57	45	31
55	-25	66	63	31
-69	3	41	8	31
-223	150	17	23	31
-175	198	37	35	31
-84	59	36	28	31
62	-132	1	17	31
143	8	-7	27	31
110	286	64	37	31
-97	165	186	35	31
-143	-126	117	19	31
26	-193	9	-30	31
229	-98	-69	-27	31
108	-99	-208	-2	31
-113	-98	-235	21	31
-45	-50	-154	8	31
-128	-4	-73	-29	31
-160	92	2	-37	31
-149	74	32	-48	31
-161	87	-7	-17	31
-27	208	25	44	31
77	401	37	112	31
-39	495	16	95	31
-74	-55	27	34	31
132	-550	29	-59	31
100	-300	47	-116	31
-17	-148	27	-67	31
41	-168	4	-65	31
108	-59	-12	-21	31
87	-61	-25	-53	31
46	39	7	-64	31
-23	224	18	49	31
-185	378	-21	42	31
-134	376	-37	13	31
44	174	-19	-5	31
-53	198	-18	-34	31
-93	36	37	-17	31
58	-491	100	49	31
72	-706	74	103	31
37	-414	11	52	31
-9	-164	-17	-6	31
-56	-112	52	6	31
-14	145	63	28	31
19	212	17	42	31
14	70	8	44	31
29	-188	-42	-21	31
47	-198	-75	-80	31
57	92	-37	-15	31
41	17	-1	9	31
-79	70	-10	11	31
-79	87	4	54	31
-11	29	54	25	31
-22	141	62	-25	31
16	278	27	-83	31
0	428	-26	-95	31
-87	-2	-67	-26	31
-137	-327	-81	15	31
-116	-53	-67	9	31
-92	34	-21	4	31
-174	-34	-31	-9	31
-188	16	-45	-20	31
89	69	-16	16	31
189	-24	-18	46	31
102	-210	-12	89	31
110	-237	-9	55	31
122	-109	45	-44	31
408	100	91	-47	31
233	229	29	52	31
-270	148	-25	86	31
-280	51	-38	7	31
-209	-67	-27	31	31
145	-125	15	52	31
337	-24	36	20	31
115	49	6	-4	31
94	-80	0	-26	31
-50	-107	3	-54	31
-436	162	17	-90	31
-519	209	4	-108	31
-286	-54	-50	-51	31
57	-103	-18	52	31
806	137	43	32	31
755	333	92	-74	31
-36	437	121	-131	31
120	42	59	-46	31
52	-492	-23	20	31
-62	-371	-65	39	31
29	-211	-90	44	31
-236	-156	-59	-6	31
-108	-67	-28	-4	31
-65	27	-4	-6	31
29	69	37	27	31
112	64	49	84	31
34	267	60	79	31
-49	431	21	21	31
-128	457	-34	-59	31
-110	260	-82	-77	31
-145	-302	-143	-62	31
-67	-694	-96	-50	31
-45	-490	-32	5	31
12	-181	6	24	31
13	-177	49	27	31
-95	-72	28	35	31
-97	2	14	49	31
-61	-17	20	68	31
0	125	17	55	31
-15	127	16	-1	31
-52	55	32	-46	31
-142	22	63	15	31
-176	87	58	10	31
4	275	47	16	31
286	322	25	47	31
225	88	-36	-22	31
-37	161	-29	-24	31
-29	375	68	19	31
-145	-166	112	36	31
-229	-451	31	9	31
-315	-55	-29	3	31
-325	-48	-17	60	31
-44	-244	-109	53	31
161	-221	-123	-6	31
383	-39	42	-42	31
261	135	65	-51	31
4	194	-34	-42	31
53	326	-90	-42	31
162	-31	-114	-33	31
79	-548	-127	-70	31
-273	-357	-43	-59	31
-219	-71	93	9	31
241	102	120	0	31
563	110	86	15	31
396	-84	62	55	31
132	-87	55	46	31
104	-17	-15	21	31
58	321	-64	8	31
86	537	-57	-8	31
-170	69	-80	-6	31
-380	-297	-55	-22	31
-150	-115	-34	-55	31
59	14	-58	-63	31
92	4	-47	-40	31
65	87	6	44	31
-7	36	32	50	31
-64	27	31	12	31
-60	19	33	7	31
-106	-17	53	2	31
-92	57	90	56	31
-63	84	90	8	31
-63	37	42	-17	31
-44	-90	19	52	31
-61	-82	12	26	31
-87	34	-1	6	31
-59	161	65	10	31
-21	356	80	12	31
-40	392	46	6	31
-25	88	44	19	31
-12	-358	-5	-13	31
-8	-508	-83	-49	31
-11	-333	-137	11	31
-42	-69	-83	30	31
-37	-27	-58	29	31
-62	-92	4	119	31
-11	-67	224	216	31
112	-54	209	167	31
85	-18	-21	-6	31
-33	-36	-236	-67	31
-26	-26	-447	-57	31
34	-24	-381	-299	31
-9	-12	-33	-486	31
-60	1	126	-222	31
-93	-61	64	70	31
-108	27	21	8	31
8	130	-54	-24	31
223	92	-76	47	31
94	137	-72	-31	31
-97	150	-28	-130	31
69	7	81	-137	31
-2	-16	107	-53	31
-84	3	89	41	31
-19	-16	63	184	31
-86	47	74	310	31
-114	56	80	163	31
-98	41	126	1	31
12	77	181	50	31
-15	39	146	82	31
-111	-83	103	4	31
-194	-121	145	-45	31
-280	91	194	35	31
-350	463	214	140	31
-308	531	213	200	31
180	-32	35	243	31
606	-511	7	285	31
740	-270	314	284	31
562	-107	406	35	31
244	-125	101	-274	31
193	50	-292	-456	31
32	27	-798	-709	31
49	-156	-1217	-436	31
56	-466	-1098	-17	31
-44	-343	-398	-165	31
236	55	10	-122	31
133	100	0	109	31
-55	245	175	252	31
-187	162	183	259	31
-362	151	201	103	31
12	492	239	-91	31
160	386	234	-91	31
-150	-80	215	-22	31
-135	-515	100	-25	31
-70	-351	42	106	31
-100	-21	0	113	31
-21	-105	44	85	31
-10	16	127	112	31
17	39	139	229	31
-76	-6	30	236	31
-125	27	-146	44	31
-94	-64	-219	-132	31
-10	29	-22	-272	31
14	64	231	79	31
-126	54	596	622	31
-42	62	1035	600	31
14	41	883	215	31
-2	132	383	-444	31
-18	166	-191	-1159	31
-62	55	-1016	-1156	31
-42	-103	-1369	-323	31
-60	-117	-726	765	31
-39	59	-14	594	31
12	124	550	67	31
21	-68	856	193	31
-31	-179	578	295	31
-2	-124	216	304	31
-11	-52	-680	98	31
-131	19	-1448	243	31
-178	39	-1236	-238	31
-39	-49	-636	-984	31
191	-69	-151	-763	31
180	63	237	-229	31
138	213	533	211	31
54	502	361	161	31
-70	525	143	-14	31
-115	-69	148	-175	31
-146	-683	239	-343	31
-59	-626	294	122	31
25	-155	444	847	31
94	-91	520	1424	31
11	-16	259	1535	31
-29	120	484	597	31
109	38	888	-1289	31
275	86	546	-2244	31
255	12	89	-1077	31
-2	14	-470	-413	31
-46	47	-1423	-186	31
-61	107	-1402	542	31
-135	431	-509	369	31
-71	454	-280	206	31
31	29	-60	-101	31
14	-403	459	610	31
-3	-365	360	1875	31
55	22	80	1692	31
24	37	-62	818	31
-2	-105	-386	-757	31
-55	-88	-438	-2328	31
-84	-97	237	-1725	31
-66	62	845	368	31
-48	126	1083	837	31
-25	7	1001	817	31
-12	-112	300	921	31
-23	-143	-413	365	31
-14	14	-895	800	31
19	17	-1089	666	31
-65	-49	-431	168	31
30	-12	213	109	31
127	-12	72	-1111	31
-3	-1	182	-880	31
16	46	318	-182	31
-87	10	-74	-430	31
-138	-22	-221	-104	31
9	13	-83	-1108	31
-50	39	178	-844	31
-80	125	334	953	31
12	109	257	1039	31
144	19	133	586	31
256	-20	350	-171	31
173	5	643	-902	31
25	29	-138	-444	31
-2	-52	-700	-408	31
7	-21	-649	-497	31
24	-16	-943	953	31
38	-6	-408	954	31
-48	24	214	-91	31
-141	8	69	-247	31
-85	145	-130	-67	31
-50	167	-406	-185	31
29	31	41	-683	31
77	-89	859	-522	31
-19	-39	1091	-286	31
37	200	1197	-923	31
-4	403	1025	-669	31
-103	332	179	581	31
-39	-168	-217	274	31
-13	-566	266	279	31
112	-437	-532	790	31
154	-172	-1377	50	31
10	-154	-1396	-189	31
-35	-70	-1496	-977	31
-120	41	259	-1754	31
-161	-50	1279	-492	31
-92	-3	424	909	31
-101	72	-155	1482	31
-54	85	-826	575	31
-2	65	-574	-731	31
-57	-25	370	-1154	31
-92	-80	699	-219	31
-67	-24	70	764	31
36	136	-408	1142	31
84	265	-408	1435	31
-35	292	-95	1024	31
101	56	541	-300	31
169	-265	547	-2095	31
86	-36	283	-557	31
153	317	206	1019	31
-31	251	889	91	31
-33	388	827	-148	31
52	341	42	-373	31
67	-341	-37	92	31
140	-613	-1132	688	31
55	-360	-1617	558	31
-41	-208	-904	-709	31
-173	-156	-1048	-649	31
-166	-178	-826	-14	31
-173	-127	199	-886	31
-87	-102	954	-836	31
36	-105	957	59	31
5	-79	664	204	31
199	-122	529	-228	31
190	-59	376	70	31
-19	-3	283	24	31
4	82	-17	560	31
62	181	-291	982	31
87	219	-155	498	31
107	251	37	440	31
52	171	465	774	31
1	116	872	1063	31
-47	29	1106	-390	31
-106	-77	883	-1153	31
-83	-90	-212	-833	31
-83	-87	-985	-844	31
-110	-36	-1545	-126	31
-84	-2	-1864	871	31
-65	37	-775	660	31
-12	59	-66	-302	31
-15	-17	-45	-1056	31
-54	-10	406	-536	31
6	125	375	709	31
-6	205	300	684	31
-12	329	681	1370	31
39	378	1386	807	31
14	26	1791	-845	31
-77	-274	1477	-1799	31
-204	-279	93	-631	31
-127	-126	-1543	1158	31
49	-60	-1971	941	31
95	102	-2123	1551	31
223	123	-1380	-127	31
90	-284	-421	-2285	31
-94	-2	-28	-1645	31
43	252	501	-521	31
-16	-202	532	251	31
-58	-261	625	723	31
-128	244	949	832	31
-102	265	1247	8	31
5	-360	960	-466	31
-44	-387	406	-1019	31
78	51	-300	-384	31
-33	252	-916	951	31
-236	370	-380	500	31
-31	489	-120	497	31
353	229	-103	453	31
383	-190	11	223	31
59	-235	-457	556	31
55	-75	-477	512	31
201	-146	-101	216	31
160	-258	-74	372	31
15	-259	-181	553	31
-36	-437	-226	374	31
100	-260	-39	-607	31
6	-81	302	-1753	31
-121	-80	621	-465	31
-130	-26	755	517	31
-73	-9	176	-835	31
13	36	-217	-1877	31
-119	104	-317	-581	31
-102	312	-463	337	31
45	95	117	170	31
-1	-245	182	835	31
-31	-178	141	373	31
-32	122	581	176	31
-38	227	296	380	31
-43	90	-76	289	31
-113	153	-444	445	31
-155	123	-811	-44	31
-141	149	-532	-510	31
2	139	-277	-84	31
80	55	-80	595	31
1	11	312	337	31
28	-54	467	-242	31
1	170	867	-123	31
-47	165	800	761	31
-32	-176	77	416	31
43	-336	-214	204	31
251	-156	-438	-331	31
296	-1	-138	-1809	31
160	-42	290	-430	31
-20	2	-118	867	31
-100	1	-132	449	31
-68	81	447	-21	31
-27	133	426	-295	31
-1	7	-337	-176	31
-141	-118	-990	-600	31
-135	-139	-1078	-420	31
57	-11	-453	447	31
28	36	8	-154	31
-117	130	-116	-173	31
-107	299	7	487	31
-109	559	69	361	31
-91	485	248	502	31
64	-196	278	105	31
14	-474	256	-363	31
-124	-122	463	-300	31
9	27	457	-92	31
85	-206	769	434	31
122	-50	905	581	31
198	285	527	-11	31
-133	-34	-3	-122	31
-213	-456	-846	-702	31
61	-298	-1484	-481	31
229	-82	-1052	183	31
218	-54	-353	52	31
83	47	103	572	31
39	111	424	710	31
-57	335	242	265	31
-27	592	-75	-1540	31
-96	257	-244	-1484	31
-167	-301	-163	104	31
-118	-269	124	-62	31
-6	-5	375	104	31
100	19	290	603	31
34	64	136	579	31
52	-34	27	609	31
-11	-217	-71	702	31
-34	-276	-6	415	31
-5	-325	220	122	31
-22	-316	177	-350	31
4	-236	-115	-1057	31
4	-16	-90	-213	31
27	290	-431	929	31
-7	552	-297	284	31
-39	303	434	-127	31
-48	-234	672	-990	31
-4	-389	939	-881	31
-29	-239	1116	-98	31
-79	62	543	-564	31
-35	120	-383	401	31
-2	126	-965	1017	31
135	151	-1811	1298	31
99	35	-1465	740	31
-90	-19	-463	188	31
-72	-97	-168	333	31
-55	-44	398	-1153	31
-17	105	251	-1014	31
41	136	87	15	31
-28	44	118	75	31
10	5	456	86	31
66	50	993	77	31
60	37	746	-181	31
54	24	317	-521	31
-6	23	-123	-874	31
-31	23	-502	-799	31
-44	21	-478	98	31
-6	46	-272	838	31
27	54	-316	1372	31
-2	39	-7	666	31
-2	19	19	-756	31
-8	-47	26	-1735	31
-13	-37	56	-876	31
-49	-10	-132	336	31
-54	-29	238	208	31
-36	-9	22	777	31
-84	153	-117	436	31
-21	302	-46	257	31
-10	91	-113	496	31
-63	-110	181	522	31
72	-105	367	227	31
144	-69	296	-830	31
59	-158	170	-373	31
-33	-214	167	147	31
36	-65	43	365	31
118	-72	123	467	31
92	-67	115	346	31
92	0	-42	400	31
89	45	-130	-108	31
32	15	-357	21	31
9	-19	-376	647	31
51	50	-139	-288	31
21	81	449	-653	31
19	92	540	516	31
-67	25	-77	120	31
-153	16	-148	-1184	31
-101	62	-364	-1702	31
-117	107	-428	-725	31
-150	93	2	903	31
-61	7	-274	951	31
92	-30	-287	-183	31
27	-19	-210	-764	31
-70	20	164	-257	31
-40	-73	588	563	31
-56	-47	127	565	31
-39	85	-111	-16	31
-11	-56	-650	290	31
-14	-258	-746	297	31
-11	-225	84	-598	31
45	-83	369	-527	31
84	-108	293	302	31
114	-14	382	-57	31
84	27	371	-21	31
-19	-10	157	521	31
-79	217	-116	-144	31
-117	381	-242	8	31
-65	214	-136	-245	31
-66	-231	-133	-74	31
-84	-151	220	962	31
-44	299	1118	1282	31
45	333	1172	1022	31
134	-26	14	-590	31
50	-587	-1021	-2068	31
48	-485	-1771	-689	31
122	-110	-1227	487	31
59	-154	302	-1183	31
38	68	541	-392	31
59	157	498	623	31
-8	-2	383	-428	31
22	-65	159	-24	31
36	-123	22	374	31
-36	-69	-90	499	31
22	-57	216	450	31
27	309	151	391	31
29	548	173	344	31
6	130	198	-31	31
-33	-193	46	40	31
2	-308	150	-108	31
19	-92	278	396	31
25	57	148	991	31
-76	-5	-136	674	31
-90	49	-217	-130	31
-10	50	-371	-1379	31
-28	75	-317	-1611	31
-97	22	-320	-332	31
-138	67	-569	186	31
-111	-12	-214	-253	31
-74	-98	85	-66	31
31	45	-2	178	31
212	146	117	92	31
191	177	299	-37	31
22	112	403	179	31
-12	118	260	410	31
-59	54	28	480	31
-124	9	-221	395	31
-112	-97	-393	143	31
-33	-184	-194	82	31
57	-95	-87	244	31
59	-92	13	270	31
67	-2	434	-512	31
41	181	889	-938	31
1	412	1366	-765	31
-39	228	1176	-1163	31
-111	-388	-173	-506	31
-116	-507	-1092	236	31
-104	-252	-1645	350	31
-80	-189	-1602	951	31
-70	-61	-208	360	31
-31	142	151	71	31
199	160	7	182	31
254	203	389	332	31
47	282	495	196	31
-7	255	454	-157	31
-37	131	102	252	31
9	141	-251	233	31
96	249	-533	393	31
-25	-69	-398	72	31
-55	-485	-42	-397	31
32	-355	98	-302	31
-2	-70	206	-352	31
-89	52	220	-320	31
-102	-19	127	-79	31
-41	-199	24	107	31
2	-218	103	176	31
36	-122	135	408	31
120	-75	178	310	31
138	-45	-1	-142	31
97	57	-145	92	31
65	54	39	587	31
-44	48	90	115	31
-75	85	110	-123	31
-62	95	-22	-621	31
-49	114	-100	-1078	31
-47	234	21	-226	31
-102	831	127	333	31
27	1075	357	380	31
117	-45	567	54	31
-25	-1098	431	-351	31
-27	-838	9	85	31
69	-401	-561	355	31
101	-284	-790	-161	31
80	95	-572	-948	31
-34	52	-396	-1402	31
-66	-264	-109	-28	31
-85	-206	55	978	31
-79	-72	105	478	31
-89	158	236	633	31
-144	374	391	683	31
-123	378	573	554	31
-143	-130	229	245	31
14	-412	-134	-673	31
306	-105	-186	-758	31
243	94	-289	223	31
29	148	-173	320	31
-8	86	132	-323	31
-67	-71	358	-48	31
-60	-176	227	150	31
-26	-20	-121	-123	31
-35	177	-398	-304	31
85	227	-505	175	31
112	128	-247	514	31
42	22	162	-52	31
-17	65	293	-117	31
-44	31	233	-240	31
-34	24	-21	-16	31
-28	34	-361	276	31
-57	68	-391	95	31
-69	169	-163	294	31
43	270	158	245	31
-6	214	192	249	31
-91	-112	66	-119	31
-61	-280	150	-188	31
-42	-182	211	50	31
32	-43	317	-226	31
-2	-32	342	-305	31
-2	9	244	-22	31
82	42	268	201	31
15	44	28	307	31
23	131	-188	-232	31
100	110	-347	-1404	31
-60	247	-852	-1016	31
-167	328	-624	-1018	31
-85	96	-62	-286	31
-79	-363	94	1244	31
-79	-490	83	497	31
-25	-266	-50	450	31
110	-243	81	471	31
146	113	138	587	31
-7	277	173	840	31
-204	169	243	203	31
-246	-114	223	-85	31
-132	-487	146	-502	31
62	-188	215	-319	31
503	62	394	148	31
446	254	246	-49	31
-39	422	32	55	31
-105	23	-330	353	31
-114	-396	-505	34	31
-48	-265	-227	-247	31
55	-66	-114	-276	31
155	-12	-64	-188	31
266	398	86	65	31
38	520	122	108	31
-128	75	178	71	31
-72	-300	223	55	31
45	-375	100	113	31
-4	-318	-130	370	31
-54	-139	-456	307	31
-32	267	-507	-262	31
-166	501	-191	-389	31
-201	312	-6	-55	31
-290	-191	67	103	31
-252	-556	151	58	31
-110	-403	122	-489	31
244	-121	20	-486	31
706	-103	-100	194	31
428	9	-44	290	31
141	82	11	42	31
109	39	-15	-72	31
-63	101	94	80	31
-39	76	160	12	31
-44	74	181	31	31
-68	110	49	613	31
-31	175	-107	-423	31
-107	203	-65	-1730	31
-203	101	12	-948	31
-185	-82	140	-211	31
-170	-133	111	659	31
-254	119	8	1106	31
-330	276	138	337	31
-410	176	620	223	31
-581	-87	949	226	31
-553	-265	468	160	31
-91	-257	-244	42	31
178	-151	-1020	-938	31
314	-9	-1243	-301	31
962	-42	-485	1346	31
917	90	-123	1107	31
41	257	-88	914	31
-6	106	90	367	31
-140	-24	46	-579	31
-59	35	-11	-701	31
538	80	70	-759	31
299	17	232	-290	31
414	22	445	94	31
476	46	641	429	31
55	56	443	740	31
-57	27	-17	-168	31
-194	-65	-316	-1556	31
-241	-98	-469	-1663	31
-262	-100	-313	-368	31
-252	-94	-98	130	31
-127	13	-39	95	31
-17	135	36	36	31
-105	86	90	37	31
-375	38	258	415	31
-529	-42	299	246	31
-603	-148	36	490	31
-635	-40	-204	722	31
-123	36	-462	751	31
262	35	-471	532	31
-223	208	-216	-535	31
159	439	58	-1305	31
494	212	246	-747	31
226	-226	143	512	31
747	-392	-4	702	31
413	-328	-214	1253	31
338	-70	-311	1803	31
441	47	-184	1337	31
-81	295	-92	653	31
7	552	213	-1047	31
-155	282	787	-2278	31
-77	-377	1197	-1557	31
-36	-632	867	-846	31
-191	-44	246	-1759	31
-247	343	-251	-1135	31
-340	239	-643	298	31
-41	-59	-522	232	31
-119	-458	-343	467	31
19	-551	-287	423	31
386	-470	-283	382	31
166	-417	-286	405	31
-145	-171	-65	400	31
-445	32	40	291	31
-683	217	-14	211	31
-494	585	-27	186	31
-27	367	18	139	31
216	-178	108	266	31
539	-127	70	137	31
567	36	-49	56	31
285	-2	-58	-1	31
47	278	-32	126	31
-407	280	122	150	31
-455	-89	102	214	31
-388	-131	-3	261	31
259	-126	170	11	31
955	-103	352	-133	31
401	-78	508	-638	31
42	-30	365	-496	31
86	38	91	314	31
-93	66	-138	198	31
-143	94	-428	-204	31
-224	43	-369	-96	31
-279	-13	-248	334	31
-224	8	-368	724	31
-92	98	-329	569	31
49	87	-17	202	31
-87	155	378	-803	31
-160	158	557	-826	31
69	-115	514	857	31
208	-195	349	912	31
3	-37	-4	486	31
-218	68	-149	-174	31
-325	85	-365	-1546	31
-279	155	-623	-1896	31
-6	86	-482	-365	31
262	10	-342	519	31
399	4	-181	6	31
85	-100	-115	155	31
-127	-31	-100	-852	31
-123	-97	-182	-476	31
-145	-144	-208	540	31
123	65	58	703	31
257	158	224	1154	31
244	147	268	956	31
-51	34	315	941	31
-189	-169	486	326	31
-1	-320	535	-708	31
37	-95	422	-1785	31
36	77	302	-971	31
-90	62	16	370	31
99	206	-253	242	31
105	52	-332	1202	31
-89	163	-299	1415	31
305	513	-207	764	31
357	269	44	-567	31
82	-179	509	-2031	31
-88	-420	883	-1636	31
-293	-368	911	-252	31
-155	-190	710	77	31
50	-135	-92	-292	31
-31	-67	-1235	-197	31
-52	34	-1740	315	31
-21	105	-1304	1457	31
-85	46	-291	822	31
-102	-97	212	41	31
-201	-55	175	-227	31
-86	34	-8	-957	31
84	-14	-54	-224	31
67	17	74	488	31
140	268	153	240	31
105	543	369	-62	31
-56	567	393	-436	31
-153	246	400	-951	31
-217	-328	202	-193	31
-239	-727	-15	-52	31
-100	-539	75	-17	31
-53	-174	-64	803	31
-132	-39	-304	744	31
-259	246	-404	770	31
-210	525	-269	326	31
212	306	-92	-558	31
554	-219	158	-1147	31
558	-727	350	-4	31
77	-611	307	717	31
-213	-222	289	469	31
6	-124	158	215	31
143	119	6	-857	31
148	79	-125	-129	31
31	75	-184	1447	31
155	326	-70	1269	31
113	169	138	-255	31
-249	1	321	-1075	31
-196	59	242	-1126	31
-192	297	7	-328	31
-137	263	-193	366	31
338	-69	13	-362	31
324	-214	509	-598	31
42	-198	560	-253	31
9	-31	-52	1000	31
-80	-26	-808	1498	31
66	127	-1103	293	31
281	273	-931	-1066	31
22	34	-251	-1825	31
-335	-88	214	-368	31
-302	-293	142	355	31
-7	-259	208	-266	31
104	34	122	-170	31
30	198	102	327	31
9	479	238	547	31
-145	594	181	267	31
-75	267	183	761	31
41	-287	254	419	31
89	-538	317	-107	31
145	-216	67	356	31
-226	156	-259	421	31
-258	56	-376	769	31
-281	2	-237	296	31
-386	-2	95	-144	31
-37	-128	64	348	31
112	-33	-101	-1337	31
14	-97	73	-2277	31
158	-68	342	-623	31
140	2	266	552	31
-50	-38	-8	1300	31
451	57	-234	1162	31
559	37	-303	410	31
70	79	-203	-101	31
-20	52	-38	-1104	31
-85	-75	191	-520	31
-155	69	224	-81	31
-155	407	253	-127	31
-261	420	317	646	31
-236	90	103	326	31
24	116	-86	-209	31
281	182	-247	-714	31
169	-93	-339	-641	31
21	-277	-82	567	31
21	-398	72	319	31
-194	-482	-7	-63	31
-300	113	198	428	31
-450	707	343	277	31
-532	-22	46	36	31
-276	-874	-167	274	31
64	-963	-292	769	31
387	-359	-696	770	31
764	101	-669	49	31
717	88	-78	-1142	31
128	298	211	-1254	31
39	41	125	53	31
63	-14	13	-18	31
59	64	133	-530	31
30	24	367	-157	31
-39	136	527	-137	31
64	48	340	257	31
-69	111	-169	855	31
-72	112	-401	252	31
-132	123	-441	-511	31
-193	37	-219	-532	31
-186	-23	132	-436	31
-158	70	92	-304	31
0	204	2	-291	31
79	624	-36	-641	31
112	588	128	-55	31
-45	20	381	41	31
-95	-371	449	-406	31
9	-390	553	1211	31
-69	-129	292	612	31
-181	-65	4	-201	31
-223	-234	-127	239	31
-267	-359	-313	-110	31
-345	-423	-201	605	31
-368	-232	-79	377	31
48	-60	-83	403	31
496	42	-194	276	31
546	188	-308	-482	31
295	95	-345	-270	31
73	113	-313	-16	31
145	135	-54	-248	31
-19	97	14	-476	31
90	117	14	258	31
204	80	72	416	31
22	78	18	-180	31
43	53	51	-34	31
-63	98	158	255	31
-102	68	414	76	31
37	-11	406	-254	31
131	33	55	402	31
-108	138	-201	1294	31
-224	81	-322	-490	31
-239	66	-181	-2234	31
-508	429	161	-858	31
-509	155	211	201	31
-270	-519	62	-278	31
-154	-424	-2	280	31
38	-19	-42	613	31
123	-119	205	597	31
-100	-403	229	1086	31
393	79	-120	228	31
977	285	-264	-521	31
651	76	-291	-808	31
127	18	-136	-357	31
112	-351	146	228	31
132	-364	283	-95	31
31	-158	256	115	31
18	265	-18	348	31
-241	711	-259	570	31
-349	507	-305	552	31
-418	-206	-330	159	31
-360	-632	-161	-229	31
-73	-326	-99	-221	31
58	-222	-45	274	31
280	-59	115	-241	31
367	9	163	-1009	31
31	-113	176	-797	31
-234	49	44	45	31
-120	8	-29	415	31
-159	58	21	241	31
-250	62	201	81	31
-204	150	507	-345	31
-52	502	455	168	31
359	739	160	529	31
443	388	7	105	31
233	-236	-321	209	31
43	-156	-457	-342	31
-74	-137	-357	-964	31
-36	-386	-538	-365	31
-3	-333	-391	612	31
105	-148	19	636	31
49	-55	157	-458	31
-174	-70	206	-873	31
-134	-21	130	526	31
-108	-11	57	953	31
-122	34	140	346	31
12	77	116	242	31
58	76	138	-318	31
-15	93	120	26	31
-152	70	45	42	31
-280	12	22	-170	31
-335	-94	-62	-117	31
-229	-48	-84	-137	31
0	12	-89	183	31
74	43	-19	150	31
179	78	-55	122	31
348	-11	-91	-337	31
200	-12	46	-289	31
137	-15	178	174	31
-31	-14	150	1164	31
-115	150	-86	1734	31
90	395	-105	557	31
-4	441	-6	-1029	31
-312	298	181	-2252	31
-711	418	262	-785	31
-695	490	15	717	31
-443	-357	-98	132	31
-36	-1158	-148	196	31
283	-693	-157	153	31
176	-404	-253	637	31
614	-222	-338	635	31
1469	210	-119	-512	31
853	186	184	-1115	31
-132	193	524	-1058	31
195	-171	451	357	31
13	-240	91	776	31
203	102	-74	-96	31
168	74	-309	-51	31
-381	117	-262	-68	31
-211	11	64	-190	31
-411	-73	68	-121	31
-74	-21	-11	112	31
82	-20	-17	238	31
11	118	-34	-12	31
-58	218	16	-112	31
-292	74	-44	46	31
-125	-115	-67	72	31
-197	-146	-42	-191	31
-252	7	-12	-186	31
-82	167	79	-144	31
250	48	16	-83	31
240	-14	-69	-74	31
234	98	-97	69	31
118	141	-85	416	31
-118	16	-33	315	31
-26	-154	72	203	31
-148	-123	121	-78	31
-3	-73	145	-678	31
-43	-45	224	-401	31
-64	7	94	244	31
-37	53	52	139	31
-130	55	85	31	31
-16	179	-27	106	31
-117	538	-74	45	31
-77	497	-209	-22	31
-83	-36	-255	-33	31
-86	-472	-102	38	31
4	-576	-5	232	31
97	-291	47	532	31
67	-120	35	415	31
-87	-48	27	-211	31
-125	257	82	-569	31
-232	256	-41	-437	31
-98	-59	-244	-123	31
-3	67	-131	77	31
-279	667	84	103	31
-613	363	141	-108	31
-776	-857	112	-357	31
-267	-969	-31	39	31
702	-242	-112	85	31
1244	-60	-71	-77	31
1105	-18	32	357	31
265	76	105	631	31
-216	41	114	430	31
-287	52	197	215	31
-463	9	200	97	31
-156	-51	100	-648	31
121	60	29	-1193	31
231	394	-62	-701	31
216	753	-172	207	31
336	553	-206	261	31
157	-242	-167	18	31
-368	-631	-89	-39	31
-509	-419	-23	-112	31
-64	-195	23	85	31
602	135	6	16	31
830	158	-69	330	31
582	-6	-67	353	31
-63	57	25	-37	31
-70	21	65	22	31
-72	50	-1	182	31
-210	57	-22	361	31
-57	66	-24	309	31
-167	144	-8	119	31
-95	95	5	50	31
-183	58	2	199	31
-230	69	-12	-147	31
-294	47	-2	-936	31
-330	45	168	-883	31
-242	43	203	-88	31
-287	-7	168	165	31
-245	43	125	388	31
-323	-12	-26	600	31
-253	-255	-49	237	31
112	-257	-41	-304	31
642	-85	-52	-749	31
348	54	-105	-188	31
-304	8	-201	674	31
-102	-17	-302	860	31
103	34	-381	511	31
585	-82	-186	-523	31
619	-110	230	-1200	31
140	-17	542	-198	31
203	98	493	1028	31
-102	7	175	362	31
-173	-12	57	-537	31
-108	194	-33	-431	31
-260	257	-201	-362	31
-310	55	-193	141	31
-491	-300	-156	863	31
-412	-306	-46	794	31
-84	122	155	-79	31
340	493	166	-289	31
93	287	26	-241	31
-22	-114	-62	-550	31
459	-52	-232	-150	31
292	249	-169	-146	31
60	73	15	-357	31
70	-592	29	216	31
80	-747	50	394	31
-54	-297	46	-189	31
-166	-14	89	-356	31
-156	-66	67	-344	31
-441	24	-29	-46	31
-276	55	-67	434	31
256	94	54	261	31
322	198	112	247	31
-127	36	-16	247	31
-268	112	-92	60	31
-91	111	-166	-297	31
-37	54	-124	-513	31
94	110	-2	153	31
109	19	31	871	31
593	107	90	953	31
316	144	43	714	31
-230	32	-103	-305	31
-184	-97	-57	-1575	31
-425	0	58	-975	31
7	-44	75	-110	31
135	-409	44	30	31
53	-140	-1	185	31
-26	10	37	137	31
-150	-72	147	228	31
42	194	210	156	31
59	313	159	94	31
-11	488	97	-24	31
47	153	12	-110	31
221	-363	-133	-35	31
-148	-253	-168	158	31
62	-113	-173	393	31
582	-91	-251	454	31
316	-17	-310	693	31
8	-50	-368	761	31
-12	-3	-264	92	31
3	92	13	-1314	31
-160	27	207	-1755	31
-309	38	228	-261	31
-577	3	23	214	31
-498	-1	-6	-87	31
-124	-60	90	557	31
403	-19	59	560	31
632	117	111	805	31
-6	-2	143	340	31
-171	65	237	-992	31
-11	96	176	-424	31
-85	8	21	-469	31
55	58	95	-952	31
64	-24	49	-20	31
-19	-135	52	-98	31
-161	-84	218	-116	31
-243	-84	133	215	31
-95	-117	-32	272	31
115	121	-145	459	31
151	231	-378	249	31
-120	122	-288	476	31
-199	-16	-69	433	31
-110	-127	-28	133	31
-77	17	54	227	31
-134	279	-143	240	31
58	392	-244	840	31
365	97	-183	1340	31
-123	-267	-179	97	31
-489	-427	62	-1757	31
-86	-272	290	-2018	31
504	-46	294	-95	31
631	-151	110	495	31
303	176	19	190	31
37	761	-15	212	31
-423	740	-36	-303	31
-328	79	41	158	31
103	-498	41	186	31
82	-479	7	691	31
101	-332	-21	350	31
340	-459	92	-877	31
188	-418	162	-541	31
-124	-163	14	160	31
-25	-155	-103	36	31
-103	-3	-2	95	31
1	112	144	506	31
-59	110	95	181	31
-139	261	-115	347	31
104	252	-293	89	31
-32	-95	-315	-36	31
-25	-402	-210	-75	31
-178	-105	84	-62	31
-308	98	478	-239	31
-153	57	689	-936	31
-132	497	480	-263	31
-19	705	-44	37	31
209	229	-315	-662	31
461	-441	-384	-829	31
370	-437	-494	-131	31
222	-55	-171	109	31
20	-110	82	57	31
-143	112	-23	31	31
-278	163	-107	239	31
-415	81	-270	681	31
-242	315	-232	185	31
-125	143	-196	-458	31
-111	-141	-147	-482	31
-11	-324	12	148	31
394	-247	91	575	31
434	4	205	572	31
-125	35	303	437	31
-514	67	448	161	31
-800	186	343	-290	31
-795	202	-45	57	31
-115	150	-305	1344	31
952	-7	-354	1305	31
1324	-165	-219	-72	31
617	300	70	-1393	31
224	542	317	-1775	31
145	-52	244	71	31
-37	-556	92	689	31
4	-637	221	-721	31
-21	-269	368	-347	31
-16	-105	309	245	31
-15	-73	267	233	31
-81	86	1	-482	31
-166	-33	-327	-1066	31
-342	-17	-229	-434	31
-508	80	-243	553	31
-550	285	-425	673	31
-383	403	-494	426	31
-22	134	-456	895	31
507	-133	-87	1010	31
528	-186	236	203	31
84	-26	381	-607	31
12	-74	510	-486	31
85	-76	332	207	31
-57	45	151	1045	31
-175	-64	-95	885	31
-120	-44	-357	-261	31
20	55	-249	-1430	31
190	129	-469	-1615	31
77	141	-397	-1492	31
-227	280	146	-944	31
-314	532	174	-89	31
-595	136	24	577	31
-965	-575	-64	351	31
-1000	-515	-66	132	31
-283	282	77	858	31
1221	776	258	1107	31
1258	424	211	916	31
232	-194	211	-198	31
-66	-188	216	-235	31
168	21	-224	598	31
882	-207	-457	769	31
520	-589	-409	1331	31
167	-602	-197	882	31
216	-331	616	-1086	31
-185	-340	1052	-1612	31
173	-131	716	-1841	31
-23	70	229	-1320	31
-274	98	-613	1040	31
-128	179	-580	1425	31
-282	98	307	1546	31
-235	179	532	653	31
-210	116	496	-1148	31
-72	54	36	-173	31
-77	95	-601	795	31
-27	291	-701	772	31
94	914	-568	37	31
-34	897	-459	-959	31
-98	426	-332	-522	31
-348	-16	-272	360	31
-477	-909	-545	1042	31
-321	-1305	-694	1069	31
-189	-786	-218	-342	31
171	-380	358	-1170	31
132	-361	749	-880	31
57	16	921	-443	31
563	293	567	-521	31
530	115	272	-456	31
285	7	-45	173	31
136	-1	-361	268	31
-117	259	-153	82	31
-185	85	57	-934	31
-430	-4	102	-653	31
-460	423	352	125	31
-118	808	538	206	31
62	737	309	812	31
-111	82	140	305	31
-90	-154	223	344	31
146	-736	363	506	31
204	-1019	-59	320	31
621	-78	-497	325	31
611	264	-669	-279	31
200	145	-1182	-1808	31
-94	19	-925	-1770	31
-326	-231	-375	453	31
-135	-135	-251	149	31
-326	-109	42	-221	31
-434	-93	353	56	31
-223	134	769	1100	31
-21	461	1010	1950	31
208	598	684	1572	31
222	226	1	665	31
212	237	-528	-1946	31
-147	419	-618	-2244	31
-298	87	-159	-73	31
-65	-450	310	1423	31
-89	-633	141	1386	31
77	-298	-7	191	31
5	-130	-280	-761	31
-163	292	-268	-1092	31
-28	740	-158	301	31
-98	768	-123	577	31
-9	-124	438	128	31
6	-1109	633	1616	31
-1	-67	703	293	31
234	311	616	-893	31
493	-766	289	-1504	31
159	-316	-144	-1939	31
-44	-229	-264	746	31
179	-996	-81	932	31
85	-325	-684	363	31
395	-82	-700	-585	31
230	-74	-311	-570	31
-41	374	-340	1113	31
-29	169	143	-19	31
-205	318	379	29	31
-69	464	514	-262	31
-125	398	481	-428	31
-197	122	105	497	31
-173	-26	160	-172	31
-123	305	146	92	31
-160	-14	-146	-491	31
-263	-29	-562	-912	31
-374	375	-922	28	31
-257	118	-941	525	31
70	72	-606	584	31
99	69	235	-757	31
373	-416	719	-1644	31
473	-718	711	-247	31
357	-585	856	75	31
276	-54	538	-441	31
-11	560	-66	1366	31
-61	640	-270	1811	31
-38	211	-344	1213	31
-79	288	-286	-360	31
-181	1011	307	-2315	31
-397	973	110	-754	31
-562	-403	-670	1396	31
-702	-1315	-503	1621	31
-745	-672	-391	913	31
-391	-345	-437	-166	31
343	-608	-189	-338	31
1030	-153	119	334	31
840	-47	498	-68	31
458	24	565	-513	31
395	508	296	-459	31
-50	563	22	193	31
-349	619	-220	617	31
-670	-45	-105	-271	31
-1029	-838	224	-578	31
-769	-581	71	245	31
-234	-112	-135	1092	31
933	-97	-288	875	31
1931	200	-356	-161	31
1123	793	229	-1517	31
130	593	959	-1787	31
-182	-29	1058	-624	31
-152	-343	544	744	31
85	-129	-173	658	31
-41	-269	-672	-656	31
-283	-450	-699	-1093	31
-325	-4	-327	-1542	31
2	-7	0	-249	31
94	-45	-40	641	31
-24	83	-152	175	31
-88	136	-158	953	31
-64	565	-151	729	31
-55	567	189	-895	31
-241	478	716	-1656	31
-327	531	703	-1138	31
-383	-340	227	-423	31
-194	-1299	-412	1121	31
-55	-862	-927	496	31
17	42	-703	238	31
-3	-155	-276	403	31
-173	-77	258	36	31
15	58	1033	870	31
310	-77	944	135	31
338	275	310	-78	31
-100	163	-360	-214	31
-310	152	-826	-583	31
-183	125	-418	47	31
-97	22	-4	933	31
-44	-72	-149	986	31
-272	9	-266	28	31
-266	486	-95	-527	31
-13	621	227	-1282	31
139	1044	534	-1553	31
-49	991	750	-317	31
-294	-597	582	250	31
214	-1426	475	474	31
950	-534	-24	585	31
898	-424	-911	-95	31
151	-237	-1139	9	31
-510	550	-898	-104	31
-896	19	-264	-758	31
-755	-421	231	-171	31
-206	-508	210	785	31
357	-100	-13	997	31
1166	674	32	947	31
1374	672	113	860	31
327	249	-44	675	31
-218	-359	82	324	31
-71	-593	285	-177	31
-67	-546	419	55	31
56	-279	342	377	31
-95	9	141	-638	31
-177	-87	-137	-1457	31
-459	-13	-408	-1483	31
-777	56	-547	-636	31
-607	224	-593	-271	31
-287	500	-198	-6	31
272	746	105	516	31
550	1401	325	416	31
233	1216	548	644	31
16	-413	747	56	31
26	-1519	918	404	31
22	-972	-113	1493	31
195	-512	-919	1141	31
64	-452	-888	-185	31
-225	53	-672	-1970	31
-604	-131	84	-621	31
-674	196	410	905	31
-165	514	779	-295	31
149	-158	1164	198	31
663	-274	838	716	31
940	-43	315	968	31
457	292	-196	622	31
44	31	-644	-269	31
8	-280	-594	-693	31
-224	-88	-510	-1272	31
-438	39	-1002	-694	31
-633	88	-992	-934	31
-787	70	-454	-452	31
-490	206	-73	-236	31
-98	108	380	-169	31
347	-105	673	878	31
517	-313	608	441	31
653	237	546	649	31
858	956	766	3	31
436	289	585	-151	31
-143	-344	42	485	31
-113	-555	-347	202	31
-150	-432	-788	506	31
-323	-106	-463	491	31
-236	-43	77	82	31
-41	251	-156	543	31
179	229	-112	547	31
-77	-90	-159	11	31
-126	-119	-419	139	31
-13	106	-25	-539	31
54	515	304	-1465	31
97	1005	143	-1122	31
-445	885	-182	-29	31
-477	-79	-138	-226	31
-147	-758	362	-261	31
-168	-882	597	-309	31
-325	-899	572	20	31
-640	-662	208	1583	31
-398	139	-357	188	31
1048	727	-629	-782	31
1656	65	-595	-441	31
342	-392	-125	-227	31
21	-151	293	192	31
131	150	260	238	31
21	427	174	122	31
148	785	416	-113	31
-290	1324	538	324	31
-525	345	514	406	31
-381	-1266	284	229	31
223	-1172	-243	165	31
570	-495	-263	640	31
345	-389	-219	-94	31
-109	-67	-541	-610	31
-388	84	-452	-84	31
-638	152	-280	254	31
-871	578	-319	1199	31
-600	443	-433	1620	31
-69	131	-410	1088	31
702	-105	408	-1395	31
962	307	1275	-2504	31
486	544	1310	-987	31
-208	-434	507	711	31
-265	-652	-172	689	31
60	-167	-608	49	31
-185	6	-996	-486	31
74	-105	-834	-284	31
402	-120	-688	977	31
49	-21	-518	1060	31
-4	-72	136	509	31
98	-6	1018	-15	31
32	19	1198	-328	31
-593	310	567	410	31
-1122	495	-392	1255	31
-710	193	-1253	1294	31
-46	-97	-851	-620	31
792	-416	92	-2493	31
864	-414	156	-1214	31
572	-62	-52	432	31
330	-4	125	-192	31
-16	531	372	284	31
129	1129	406	-192	31
-110	464	272	-699	31
79	-525	112	608	31
90	-824	121	731	31
-416	-511	64	211	31
-186	-494	-65	53	31
-388	-395	100	74	31
-596	-17	-157	-191	31
19	232	-684	-125	31
259	714	-380	-183	31
362	533	572	311	31
69	-161	1051	346	31
-344	-398	469	-567	31
28	-79	-193	65	31
43	260	-927	-146	31
-37	219	-964	-608	31
-38	271	-130	27	31
34	66	-157	-607	31
181	-78	24	-328	31
148	257	335	431	31
-65	302	115	272	31
-395	-130	58	630	31
-635	-654	250	-949	31
-666	-605	716	-2267	31
334	-389	874	-1058	31
1361	-84	730	122	31
544	358	-1	-162	31
-990	809	-492	181	31
-928	924	62	1611	31
-153	-310	-138	845	31
888	-1002	-721	431	31
1196	-352	-911	229	31
-284	-187	-928	-560	31
-241	-203	-284	508	31
271	-44	21	24	31
314	-15	-21	-805	31
590	379	-11	-401	31
9	754	-67	-160	31
-173	317	211	454	31
-277	-301	358	529	31
-228	-347	552	656	31
140	-269	836	1462	31
285	-225	684	1534	31
150	14	-70	-470	31
-152	-23	-176	-2434	31
-89	-70	93	-1564	31
-89	24	-79	936	31
-82	-78	322	1866	31
-178	2	-297	1274	31
-384	80	-1254	-213	31
-365	242	-767	-1343	31
-324	234	-350	-880	31
-266	-182	87	271	31
98	-88	389	696	31
349	178	443	346	31
63	60	334	104	31
-149	334	-212	167	31
-216	712	-317	-33	31
-319	329	-180	-7	31
-263	-436	127	145	31
38	-726	292	315	31
388	-351	237	408	31
491	-89	290	456	31
289	140	358	238	31
-6	219	417	-72	31
-64	-93	211	-208	31
176	-8	98	-1261	31
303	138	341	-1840	31
27	60	294	-1845	31
-252	-12	-89	-208	31
-146	31	-289	1094	31
-21	232	-727	636	31
-107	69	-759	986	31
-260	-210	-467	554	31
-140	-166	-407	175	31
8	-48	-187	-865	31
-49	399	-86	-661	31
-121	1020	183	210	31
-435	398	311	-392	31
-778	-964	336	-343	31
-648	-933	427	-606	31
37	117	49	-237	31
883	395	-223	-115	31
425	126	-140	241	31
-678	-146	159	1127	31
104	-272	204	1533	31
1098	-53	-80	441	31
1212	-398	-267	-1760	31
661	-517	-586	-1756	31
-211	12	-420	-1437	31
-246	199	125	-891	31
-351	25	268	-446	31
-100	-136	216	-208	31
46	-49	203	748	31
-539	1	102	749	31
-319	-118	75	161	31
347	-116	209	-141	31
467	146	151	-44	31
176	190	288	49	31
177	252	802	201	31
62	334	1174	74	31
-91	-54	664	153	31
127	-162	-390	150	31
54	197	-1377	424	31
85	174	-1861	786	31
-158	194	-992	646	31
-274	471	-97	140	31
-160	253	135	-469	31
-143	-146	345	398	31
-2	-388	238	64	31
-285	-219	173	-742	31
-261	-100	128	-656	31
21	-267	99	-839	31
118	-182	223	-50	31
95	-128	206	-89	31
74	-17	251	138	31
163	6	168	321	31
-34	16	-108	426	31
-39	59	-191	1045	31
-36	-24	28	971	31
-84	37	244	297	31
-14	37	344	-1677	31
-64	72	354	-1558	31
-5	72	-16	225	31
-149	163	-323	145	31
-113	645	-290	62	31
42	1013	33	17	31
-237	289	170	113	31
-262	-953	-72	625	31
-392	-866	-2	289	31
-729	-500	-342	90	31
-749	-404	-657	-340	31
-566	221	-46	-337	31
824	575	297	62	31
1379	436	139	-63	31
16	81	-159	121	31
-325	349	-319	325	31
180	644	-176	165	31
413	2	-11	92	31
80	-842	249	82	31
625	-1008	450	211	31
1035	-459	507	426	31
348	-270	377	317	31
152	-97	-8	115	31
-385	67	-417	-100	31
-308	-3	-448	74	31
-38	77	-217	-268	31
203	43	26	-997	31
119	308	307	-1012	31
-578	316	243	-186	31
-805	103	-37	996	31
-1047	118	-509	1265	31
-72	-22	-701	909	31
1017	-99	-116	-120	31
825	98	421	-69	31
-38	297	630	904	31
-605	-35	359	1026	31
-398	-11	-203	1138	31
153	36	-568	-721	31
923	-282	-527	-2464	31
573	-49	-13	-1611	31
-203	146	205	-191	31
3	-84	95	-8	31
-12	-176	41	-164	31
-146	116	51	82	31
-17	23	290	607	31
-164	-39	643	741	31
-125	59	961	-42	31
-212	-145	936	-183	31
-363	-83	262	120	31
-350	89	-512	281	31
-278	151	-1025	292	31
11	5	-1190	174	31
144	-56	-730	-795	31
147	-62	-323	-1012	31
290	-95	-56	65	31
216	72	173	57	31
-110	12	95	36	31
-282	168	136	-67	31
-106	301	165	156	31
210	48	224	203	31
-12	260	225	338	31
-326	547	174	476	31
-255	117	223	-75	31
-31	-505	88	227	31
72	-232	-22	152	31
-167	337	-163	-95	31
-118	-18	-225	66	31
-295	-330	-16	57	31
-439	-270	208	-140	31
285	-179	409	-158	31
569	-71	370	-400	31
-279	90	5	-484	31
-995	392	-308	-163	31
-889	-112	-368	-269	31
-357	-391	-343	80	31
1181	-268	-206	345	31
2237	-300	-17	858	31
901	21	32	1488	31
292	67	139	1141	31
526	91	217	-168	31
-141	35	68	-490	31
38	16	-194	456	31
-142	69	-4	-581	31
-278	233	266	-1610	31
-48	843	114	-1309	31
-188	763	23	-1204	31
-288	-203	-57	-272	31
-634	-879	39	468	31
-632	-640	74	-526	31
-398	-324	-1	-785	31
172	204	48	197	31
158	383	100	683	31
-216	-409	109	588	31
99	-320	-82	72	31
307	-103	-173	84	31
480	30	-320	279	31
426	353	-426	173	31
-158	131	-257	327	31
-177	31	-146	644	31
77	108	34	578	31
-269	869	244	-193	31
-442	971	342	-581	31
-544	-377	279	-8	31
-119	-1055	130	455	31
497	-354	-50	259	31
592	532	-115	-38	31
105	-73	69	-27	31
-858	-619	107	138	31
-342	-598	41	61	31
319	-535	39	-211	31
90	-233	-34	-425	31
-76	-208	-166	-163	31
272	227	-219	421	31
1147	409	-188	724	31
571	532	-143	597	31
2	431	29	-395	31
105	108	-6	-820	31
-227	-29	-170	-57	31
-120	-205	-17	-218	31
-160	170	205	-355	31
-202	365	287	-13	31
-153	198	241	-16	31
-108	-231	194	-24	31
-27	-264	148	32	31
-79	-4	138	281	31
-122	-62	32	63	31
-375	412	-193	-118	31
-361	434	-242	141	31
-220	-91	-11	-323	31
46	-444	206	-294	31
90	-207	150	469	31
61	463	229	447	31
-26	128	222	771	31
-911	-404	-120	787	31
-578	-381	-472	-24	31
517	-191	-554	-946	31
1224	41	-400	-1679	31
1020	-46	-223	-1231	31
-151	-59	24	673	31
55	171	96	893	31
127	307	45	218	31
-203	508	97	434	31
91	268	211	-276	31
-19	-300	188	225	31
18	-19	55	537	31
-88	254	23	386	31
-214	-276	-161	222	31
-95	-359	-234	-72	31
-114	-120	-87	317	31
-94	-176	6	-178	31
-240	-51	63	-792	31
-405	-31	100	-418	31
-555	-108	146	572	31
-486	-79	61	648	31
-539	19	-24	-122	31
-696	251	50	-1088	31
-472	150	-7	-830	31
353	46	-37	180	31
1820	92	103	206	31
1257	672	100	448	31
395	1880	218	173	31
650	851	308	-273	31
-209	-1618	154	-570	31
-107	-1791	67	-10	31
289	-629	-188	400	31
262	-362	-274	-343	31
147	-181	-89	-203	31
-72	232	-64	-186	31
-170	150	-59	379	31
-989	589	-89	575	31
-1332	725	-169	853	31
-1152	-60	-122	837	31
-124	-479	-12	-438	31
989	-381	48	-916	31
835	-64	123	-957	31
502	94	69	-650	31
601	-223	39	-512	31
520	-201	-19	347	31
186	223	-273	946	31
-15	328	-309	1183	31
-209	534	-162	752	31
-82	132	-17	-979	31
-69	-408	100	-1892	31
-296	-406	143	-645	31
-474	-409	120	334	31
-577	-92	109	-339	31
-537	492	196	304	31
-319	948	358	691	31
-181	74	293	1067	31
-548	-971	52	446	31
-101	-401	-108	-204	31
1366	67	-379	37	31
1343	4	-514	-338	31
131	337	-229	-480	31
133	391	203	-929	31
178	82	441	92	31
40	11	451	418	31
11	90	183	242	31
-212	27	-97	373	31
-67	91	-239	330	31
-238	145	-396	623	31
-97	-401	-241	264	31
57	-514	130	8	31
-2	-220	402	-775	31
-228	-85	401	-876	31
-524	227	65	36	31
-246	155	-192	-120	31
-305	72	-311	-194	31
-420	-16	-328	-99	31
-41	-54	-110	-19	31
426	62	-132	712	31
455	-32	-209	862	31
284	123	-178	535	31
1	465	-50	-392	31
-231	833	218	-871	31
-174	680	135	65	31
-260	-298	183	258	31
-26	-1001	280	67	31
32	-724	133	122	31
156	-336	19	161	31
31	-323	-89	36	31
-545	-198	14	-522	31
-650	-118	90	-495	31
-633	-36	22	-19	31
450	67	-83	499	31
860	158	-263	574	31
29	492	-275	224	31
294	528	-107	-239	31
424	255	-87	-717	31
330	-38	-43	-598	31
335	68	37	-325	31
211	768	24	-625	31
154	874	120	-532	31
-73	-174	181	411	31
-50	-1209	108	676	31
-105	-951	99	371	31
-26	-415	111	344	31
19	-284	44	374	31
-101	100	46	519	31
-261	243	-12	139	31
-481	146	-26	-321	31
-342	-52	17	-340	31
34	-191	12	-102	31
339	-31	-16	57	31
170	113	-89	114	31
86	285	-4	143	31
120	350	56	-27	31
-160	348	33	1	31
-129	36	27	-92	31
-157	-391	-4	142	31
-288	-287	25	245	31
-358	-113	76	-42	31
-506	67	66	-17	31
-120	113	-13	15	31
637	-42	-55	315	31
735	22	-148	496	31
170	50	-209	170	31
74	85	29	-421	31
-218	98	231	-825	31
-487	12	206	-530	31
-277	-2	-14	123	31
-153	45	-243	300	31
262	205	-111	-744	31
216	408	-77	-494	31
305	981	-139	414	31
269	1403	62	-120	31
-249	58	38	9	31
-108	-1733	-37	-1	31
7	-1523	-45	103	31
58	-725	-2	-4	31
60	-532	132	-72	31
-75	19	171	302	31
143	218	72	181	31
547	168	-108	281	31
332	222	-118	134	31
20	47	-147	109	31
188	607	-92	67	31
91	1259	-32	100	31
-107	594	-32	58	31
-476	-669	53	22	31
-547	-849	69	388	31
-180	-500	132	393	31
-284	-231	79	143	31
-141	-21	7	-807	31
64	-131	-32	-1109	31
-56	112	-170	421	31
258	248	-49	1107	31
249	237	132	515	31
-75	-105	122	-459	31
-203	-485	72	-1175	31
-87	14	-26	-383	31
226	173	-223	48	31
199	350	-298	-564	31
135	889	-59	-578	31
-140	1281	95	15	31
-582	823	188	423	31
-1018	-907	170	367	31
-744	-1166	53	618	31
13	-153	58	597	31
455	-225	-125	189	31
899	-422	-273	-192	31
855	-336	-151	-131	31
688	-614	92	424	31
313	-275	234	87	31
305	85	230	-515	31
171	-83	242	-274	31
-214	214	191	321	31
-209	223	79	39	31
-512	188	102	-391	31
-540	249	71	-33	31
-776	264	68	44	31
-975	269	115	-360	31
-868	-272	-165	-437	31
133	-345	-459	255	31
1529	16	-457	749	31
1388	169	-241	481	31
363	209	-56	262	31
26	-64	-32	-362	31
347	-247	-105	-516	31
356	-109	-112	722	31
290	-79	22	520	31
-266	-34	51	-7	31
-347	155	90	-534	31
-320	335	247	-1922	31
-291	427	139	-188	31
78	305	-139	537	31
-327	283	-56	93	31
-89	31	193	812	31
-64	-448	259	348	31
-62	-370	260	117	31
54	-98	288	-976	31
-1	-127	127	-682	31
101	-29	-135	158	31
-180	268	-283	82	31
37	328	-406	125	31
-103	-62	-241	-207	31
-106	-325	-50	199	31
16	-68	-83	231	31
-112	40	-16	247	31
-109	321	35	204	31
-385	578	45	89	31
-368	513	87	158	31
-326	195	74	139	31
-133	-588	60	252	31
-86	-578	25	295	31
-90	16	8	521	31
146	262	68	322	31
68	-103	-50	88	31
442	-586	-112	-638	31
892	-566	133	-1105	31
415	-449	186	-178	31
168	6	54	-217	31
95	64	64	-371	31
-63	-151	143	-366	31
-180	273	126	-588	31
-501	819	-80	302	31
-127	1236	-202	572	31
111	452	-313	297	31
95	-718	-468	335	31
228	-330	-323	418	31
56	-261	-104	616	31
87	-918	-40	343	31
51	-614	11	53	31
65	-261	97	-16	31
182	-164	204	-292	31
-23	74	237	-155	31
-22	52	170	-157	31
-65	110	189	-479	31
-236	171	223	-567	31
-240	97	136	-307	31
-359	93	11	638	31
-501	118	-11	347	31
-670	153	16	-395	31
-643	104	-8	-420	31
102	-16	-25	31	31
890	19	-74	14	31
995	268	-89	-340	31
572	305	-83	188	31
74	178	-31	36	31
102	63	39	362	31
49	-52	11	352	31
-60	117	49	-79	31
-49	395	146	188	31
-228	325	142	53	31
-201	-332	9	-29	31
-292	-628	-132	-242	31
-531	318	-125	-378	31
-411	1156	-42	-282	31
-62	349	-22	-107	31
312	-949	-51	-31	31
555	-785	-27	207	31
421	-92	-26	622	31
324	21	-54	529	31
189	-65	-22	260	31
-29	-290	13	-65	31
-55	-136	87	-168	31
-52	59	54	207	31
-74	44	61	142	31
-193	154	100	-74	31
-223	-4	11	46	31
-188	-11	-12	173	31
-98	26	-75	164	31
55	-160	-110	-3	31
-115	-184	-158	16	31
-522	-78	-218	-165	31
-364	57	-140	-759	31
101	239	-183	-864	31
177	467	-261	132	31
78	615	-202	843	31
143	408	-133	171	31
241	-342	-18	-1141	31
134	-813	254	-1921	31
-14	-451	438	-140	31
34	-358	462	1713	31
438	-249	260	935	31
585	115	-14	34	31
185	-10	107	-625	31
-67	216	268	-508	31
-52	399	254	502	31
-127	203	206	130	31
-236	-54	103	325	31
-304	293	19	401	31
-299	1297	98	-442	31
-217	612	20	-97	31
-277	-891	-285	-464	31
-183	-900	-387	-466	31
195	-44	-418	77	31
306	251	-596	1062	31
27	-436	-491	1312	31
-530	-304	-9	441	31
-789	823	135	-223	31
-413	782	179	-1220	31
80	-461	122	-386	31
743	-1410	35	-418	31
997	-1079	112	-438	31
622	-449	-59	211	31
329	-259	76	-218	31
79	249	164	172	31
-50	277	216	138	31
-50	250	309	245	31
97	324	90	218	31
266	85	-19	125	31
-48	183	-210	353	31
-181	62	-342	357	31
-186	155	-307	358	31
-479	589	-164	-12	31
-449	976	134	-524	31
-411	564	328	-620	31
-74	-537	229	29	31
511	-575	57	276	31
353	-289	-131	315	31
-25	-333	-209	41	31
70	-200	-144	-55	31
20	21	-114	-15	31
-136	122	-37	-1	31
-90	130	-58	454	31
-130	123	104	-123	31
-133	-49	320	-772	31
-290	66	362	-1048	31
-363	206	450	-43	31
-386	98	509	1079	31
-383	252	290	1011	31
148	792	-261	772	31
547	651	-551	-203	31
608	-598	-572	-1126	31
373	-622	-601	-1408	31
92	31	-280	-49	31
151	-639	-77	670	31
-178	-412	-107	60	31
-330	196	27	-133	31
-123	-341	49	-191	31
-129	-368	153	-263	31
-102	-107	241	-779	31
27	110	273	-122	31
117	527	223	795	31
-171	917	36	797	31
-43	360	23	342	31
175	-583	36	-136	31
-360	-293	93	-277	31
-1030	500	40	-240	31
-954	583	-19	-34	31
353	-424	26	267	31
1877	-1084	-12	673	31
1733	-662	-93	424	31
348	0	-230	158	31
176	235	-215	-41	31
187	-245	-44	-294	31
-27	-305	-35	103	31
41	175	-112	77	31
-195	321	-49	-438	31
-82	323	46	-246	31
-165	259	111	-550	31
-196	160	90	-449	31
-204	-168	-27	563	31
-300	-517	-45	373	31
-327	-145	-29	415	31
-418	98	23	421	31
-285	127	112	-77	31
-176	346	147	-947	31
-29	725	182	-808	31
-44	1198	85	751	31
-246	740	75	676	31
-289	-15	100	82	31
-33	-1274	61	-581	31
324	-1371	45	-35	31
628	-122	-115	784	31
410	-511	-192	418	31
26	-216	-125	790	31
-41	53	4	-886	31
-214	-94	148	-1985	31
-216	314	133	-723	31
-247	-163	4	-260	31
-350	-130	-30	244	31
-453	113	-46	208	31
-734	558	-68	60	31
-582	976	-62	78	31
360	418	-37	66	31
744	77	-24	329	31
512	148	89	210	31
816	7	187	93	31
248	-254	14	-160	31
-113	-727	-123	173	31
417	-627	-245	794	31
45	71	-226	677	31
-380	193	-73	461	31
-448	296	-28	-154	31
90	308	75	-547	31
774	491	55	-239	31
338	148	-23	193	31
-172	-880	14	69	31
-115	-646	100	-303	31
-166	-37	159	-296	31
13	53	126	3	31
-32	217	0	343	31
-116	-132	-151	81	31
-22	-442	-191	-145	31
-107	-19	-106	-458	31
108	-110	22	-468	31
-79	57	25	102	31
-27	387	-1	240	31
-27	145	1	251	31
-530	-32	-24	102	31
-545	-135	-40	-151	31
-530	324	-23	-74	31
-17	245	95	-112	31
366	-197	192	-54	31
-80	185	110	188	31
-216	323	-7	125	31
8	-54	-120	408	31
416	-276	-246	287	31
1101	-122	-191	-155	31
677	54	-120	-400	31
-49	-67	-85	-458	31
179	5	40	49	31
-93	165	123	92	31
-107	-46	231	284	31
-68	-27	313	-87	31
-252	229	181	-382	31
-291	476	48	151	31
-583	485	-78	300	31
-513	-19	-148	517	31
-370	-251	-11	-218	31
2	-17	70	-791	31
332	-518	86	-608	31
476	-774	67	-176	31
454	-109	53	585	31
-52	-114	-45	820	31
-271	5	-155	673	31
-59	34	-188	590	31
204	-64	-195	64	31
533	275	-227	-456	31
382	359	-184	-1046	31
-97	401	177	-974	31
-123	-171	290	699	31
-137	-304	243	327	31
-133	224	300	115	31
-229	340	155	-148	31
-504	42	-16	-1128	31
-539	-758	-108	-370	31
-309	-656	-112	-305	31
115	-49	-100	661	31
567	9	-56	927	31
565	203	-102	199	31
-2	490	-154	-297	31
10	913	-52	-550	31
20	425	59	19	31
-300	-452	115	448	31
-169	-317	7	148	31
72	-560	-46	-535	31
116	-389	-29	-94	31
-209	451	-130	-19	31
-295	407	-129	17	31
-233	-53	-19	-69	31
-189	-487	43	229	31
-93	-180	138	754	31
-108	569	91	573	31
-343	206	-92	469	31
-93	-518	-88	-51	31
540	-248	21	325	31
672	44	123	312	31
524	-259	175	-649	31
39	-230	105	-1108	31
478	11	1	-670	31
577	-22	-45	209	31
-218	174	8	394	31
9	506	21	408	31
156	467	50	-140	31
-130	147	64	-513	31
-137	62	-82	-34	31
-185	163	-200	229	31
-181	-36	-190	103	31
328	95	-131	-106	31
24	-196	-27	-141	31
-161	-657	181	14	31
258	-204	224	-72	31
115	-252	151	-128	31
-234	79	-54	438	31
-740	956	-129	97	31
-808	821	-14	-247	31
-521	110	-119	-84	31
561	-494	-37	-122	31
1015	-743	11	281	31
203	-686	1	36	31
203	-292	69	-34	31
-62	65	28	128	31
-281	809	-23	352	31
-62	1389	-75	376	31
-89	217	-44	25	31
64	-1185	5	-41	31
-54	-1119	100	-365	31
4	-397	97	-499	31
23	-175	-7	-615	31
-52	-22	-127	-271	31
-10	120	-241	-5	31
-106	-2	-127	-32	31
-277	48	-12	482	31
-589	-131	92	352	31
-747	-64	157	79	31
-621	188	105	459	31
-203	249	73	961	31
539	477	-84	1340	31
1172	332	-131	575	31
765	-34	-42	-1218	31
279	-77	119	-2144	31
301	59	252	-738	31
-69	445	135	20	31
-281	781	116	-604	31
-184	248	111	-252	31
-65	-528	-5	132	31
-85	-550	-70	445	31
-248	-254	-145	456	31
-531	-105	-139	405	31
-762	-30	-62	145	31
-409	-92	26	-284	31
146	68	62	-269	31
554	879	36	266	31
449	1276	34	483	31
87	224	-52	249	31
-37	-1033	-215	340	31
-122	-1024	-234	-399	31
-285	-569	-123	-808	31
-54	-499	80	-503	31
717	-195	210	86	31
951	118	55	391	31
934	137	-69	-334	31
446	90	-41	-14	31
-130	39	138	317	31
-42	96	212	218	31
-182	87	94	233	31
-145	70	103	223	31
-146	52	-29	285	31
-218	30	-68	62	31
-195	41	-27	84	31
-320	-7	-103	-53	31
-271	27	-112	-88	31
-142	211	-109	102	31
13	467	-66	174	31
-38	419	-91	35	31
-96	-110	-76	-145	31
-133	-343	-9	-117	31
-90	-85	72	-52	31
9	-52	92	-9	31
-42	103	-26	38	31
66	-11	-85	24	31
17	-313	-127	287	31
-110	309	-118	1173	31
-176	568	-93	1008	31
-385	11	1	-404	31
-481	-619	255	-1245	31
-411	-756	259	-1488	31
-178	-308	184	-1199	31
267	20	93	-497	31
410	316	47	173	31
87	415	233	293	31
651	79	182	138	31
665	-307	-84	484	31
-264	115	-230	-277	31
275	599	-202	-658	31
248	-23	-251	86	31
16	-376	-153	540	31
6	-257	-7	739	31
-196	-266	9	8	31
111	-189	176	-269	31
2	-11	188	164	31
22	177	-38	484	31
-146	42	-227	804	31
-199	26	-257	612	31
-193	249	-146	-202	31
-109	320	59	-363	31
108	45	165	151	31
-47	80	247	-547	31
6	312	266	-836	31
-67	-125	160	42	31
-101	-404	36	-36	31
-306	-338	-160	148	31
-471	-39	-180	441	31
-130	298	-105	534	31
461	515	-48	1111	31
772	196	-52	1032	31
130	-567	-184	608	31
-117	-248	-258	-281	31
24	244	4	-1752	31
36	165	328	-2343	31
171	-163	301	-1309	31
-89	-397	193	-210	31
-24	315	92	286	31
-34	579	206	646	31
-264	-209	296	683	31
-216	-702	54	647	31
-243	-490	-90	307	31
60	-185	-258	699	31
347	-74	-372	880	31
229	135	-337	399	31
107	24	-288	115	31
115	48	-107	-402	31
-31	117	280	-759	31
-102	60	368	-396	31
-6	349	70	277	31
-62	409	-150	996	31
-170	272	-454	1634	31
-236	226	-477	1231	31
-178	427	-188	-848	31
-70	-37	262	-2524	31
74	-830	826	-2053	31
-21	-689	678	-64	31
-115	-241	199	1542	31
32	-1	74	1562	31
62	11	-188	987	31
79	84	-371	847	31
-9	328	-327	393	31
-203	684	-167	446	31
-299	612	24	443	31
-82	-90	7	121	31
57	-668	65	-346	31
-125	-343	49	-720	31
530	310	32	-684	31
937	29	110	-416	31
246	-433	75	-205	31
84	-222	-93	-281	31
101	-22	-257	-340	31
9	-24	-184	-305	31
-37	131	11	-115	31
-90	122	146	-158	31
-46	341	37	-219	31
-142	727	-90	-241	31
-191	332	-125	156	31
-322	-555	-209	1097	31
-275	-847	-204	722	31
17	-394	-4	-193	31
222	-165	221	-1646	31
271	31	363	-2037	31
59	265	188	477	31
-66	278	-109	393	31
-51	148	-243	-145	31
-94	-214	-416	107	31
-81	-186	-243	-504	31
-60	224	69	436	31
-124	580	307	232	31
-262	356	414	-822	31
-376	-105	252	-825	31
-335	126	317	-1611	31
-175	-117	390	-1595	31
102	-731	190	780	31
423	-461	80	1896	31
155	-175	-42	1461	31
-215	14	-102	356	31
85	545	58	-802	31
362	1087	24	-1019	31
352	592	-69	-305	31
80	-975	-239	586	31
40	-962	-599	467	31
59	30	-686	715	31
-1	84	-348	-275	31
62	229	77	-1783	31
-77	-59	339	-1152	31
-124	-431	376	-79	31
-190	-110	141	202	31
1	-20	-123	289	31
191	32	-291	790	31
159	38	-327	1277	31
132	59	-266	1231	31
-24	177	-74	6	31
-109	232	8	-1023	31
-205	235	77	-1615	31
-177	108	282	-1119	31
-183	68	191	405	31
-64	28	113	751	31
5	-42	53	787	31
-310	-146	119	578	31
-408	-180	313	108	31
-234	235	288	-561	31
248	663	236	-635	31
588	396	63	323	31
485	-457	-216	1599	31
193	-751	-422	1235	31
213	-126	-246	-783	31
291	-93	129	-1837	31
-170	-135	197	-1739	31
-161	116	266	198	31
-56	-20	348	935	31
-31	278	185	710	31
-60	600	-84	1522	31
-233	576	-266	1422	31
-69	-130	-191	754	31
-78	-777	-136	-731	31
158	-467	-98	-1763	31
209	-358	-11	-1005	31
-46	-182	-228	-421	31
-79	113	-174	-436	31
-139	48	96	374	31
-49	73	173	-117	31
48	52	285	-224	31
103	73	90	290	31
36	126	-165	87	31
-121	170	-270	1075	31
-165	208	-306	1576	31
-185	105	-149	1222	31
-131	40	-41	-779	31
-16	-180	82	-2339	31
133	-285	193	-1014	31
67	-100	-3	934	31
-16	-19	-108	1404	31
14	69	-104	1696	31
-118	289	-122	1408	31
-355	489	-12	374	31
-487	165	29	-550	31
-151	-382	115	-1398	31
293	-250	64	-1158	31
613	-96	100	-938	31
424	296	317	2	31
-107	1517	204	691	31
-196	1291	181	-186	31
-618	-720	136	-550	31
-831	-1573	-229	-389	31
-127	17	-352	787	31
825	684	-277	981	31
1052	-976	-87	108	31
683	-1084	371	-312	31
571	-301	525	-1379	31
126	-388	276	-817	31
10	-460	-126	257	31
-82	-331	-416	184	31
-156	16	-322	653	31
-68	173	116	564	31
-236	273	504	290	31
-23	191	330	-640	31
-147	131	-120	-792	31
-55	166	-541	628	31
-67	113	-555	-690	31
-318	135	-11	-1652	31
-268	122	396	-180	31
-348	219	209	38	31
-130	322	-88	-90	31
-79	333	-208	74	31
-160	103	7	77	31
-98	-185	206	290	31
297	-178	-42	245	31
580	-35	-97	266	31
187	97	-223	74	31
-1	-17	-206	-46	31
-127	-165	-25	449	31
-123	-109	-34	605	31
69	49	27	461	31
78	267	-19	205	31
37	396	-139	-226	31
-106	484	-158	-354	31
-87	84	-22	-342	31
-35	-451	12	-247	31
-77	47	130	-233	31
-156	421	252	-314	31
-179	-122	119	544	31
97	-482	-66	1148	31
43	-358	-173	267	31
-101	-275	-69	-772	31
33	-207	169	-1396	31
17	38	375	50	31
133	-4	304	471	31
-24	-14	84	-120	31
-22	86	22	522	31
173	24	-90	77	31
47	-33	-158	408	31
93	29	-166	656	31
53	207	-261	908	31
-3	332	-226	997	31
-129	730	-65	-425	31
-216	1511	329	-1408	31
-260	1505	660	-926	31
-182	-783	343	173	31
-31	-2219	74	-337	31
-163	-1104	59	-462	31
-219	-636	-218	-260	31
-431	-766	-272	-618	31
-405	7	-215	264	31
7	439	-253	31	31
518	1044	-148	68	31
709	495	40	420	31
522	-422	171	100	31
817	-247	155	125	31
429	-211	30	-36	31
6	184	-117	197	31
125	654	-207	238	31
-117	580	-204	468	31
-56	-221	-24	564	31
-93	-759	70	107	31
-83	-152	21	-243	31
-125	168	6	-257	31
-315	-61	2	-329	31
-335	-257	147	-244	31
-330	-172	153	-75	31
-241	-30	-7	-129	31
-87	93	-186	462	31
107	209	-198	313	31
243	217	56	-52	31
380	239	162	-259	31
138	-84	95	-548	31
-131	-87	-39	-247	31
-96	258	-33	-146	31
-98	177	68	-94	31
-85	-189	95	161	31
-72	-485	87	27	31
-60	-335	-12	-75	31
-79	-77	-89	353	31
-116	-30	-33	554	31
-47	33	-14	650	31
106	32	-24	203	31
74	68	-33	11	31
65	101	-151	397	31
176	47	-163	391	31
76	79	-41	323	31
37	-19	178	-335	31
24	-11	267	-853	31
-8	254	182	-597	31
-21	437	123	317	31
-133	265	-69	510	31
-243	-236	-92	-428	31
-290	-242	-93	-542	31
-116	181	-239	-108	31
45	75	-246	386	31
46	-197	-86	137	31
146	-148	149	-747	31
224	489	196	-745	31
37	791	113	-57	31
-89	-379	-80	537	31
-205	-898	-142	443	31
-259	-9	-24	144	31
199	600	56	174	31
271	335	107	161	31
-146	-411	29	-346	31
-78	-857	-14	-759	31
-17	-824	-29	-14	31
-358	-313	-2	239	31
-675	355	72	282	31
-645	685	-65	713	31
-164	246	-192	478	31
881	-209	-51	271	31
1448	-333	124	-6	31
556	-632	160	-883	31
-12	-282	177	-1266	31
-50	-22	19	-221	31
9	-70	-139	9	31
386	181	-51	5	31
343	115	6	276	31
106	117	97	165	31
-199	297	117	507	31
-405	270	-51	354	31
-368	141	-54	-172	31
-193	57	-26	-192	31
-70	93	-123	261	31
188	243	-158	453	31
223	273	-190	688	31
-135	271	-85	501	31
-77	301	123	-484	31
-303	-27	236	-1143	31
-413	-307	264	-1093	31
12	-227	93	-708	31
280	-40	-68	113	31
344	43	-54	720	31
113	-19	-218	646	31
2	0	-272	504	31
-79	145	-145	94	31
-171	410	62	-287	31
-138	378	358	-137	31
-122	-336	252	312	31
-74	-652	102	84	31
-113	-189	125	-156	31
-54	-77	136	-68	31
-14	-60	90	-66	31
29	-64	-98	55	31
59	-94	-246	375	31
6	224	-140	440	31
70	316	7	62	31
-358	294	11	-186	31
-527	-17	-47	-428	31
-98	-344	-174	-199	31
383	-191	-105	-140	31
727	-111	16	-97	31
229	4	-38	218	31
12	209	-76	443	31
1	497	-81	1116	31
-126	1073	-135	1007	31
-161	1157	-328	773	31
-237	-249	-471	-842	31
-4	-1500	-231	-2469	31
-16	-1152	266	-1696	31
-352	-667	619	-609	31
-1124	-113	586	333	31
-1297	71	366	828	31
-689	-611	214	198	31
162	-60	33	1410	31
1694	680	11	1039	31
2164	389	-65	334	31
881	674	-158	-1055	31
201	292	12	-1569	31
147	-285	117	-377	31
-88	-1	49	-108	31
120	-263	-78	-36	31
82	-249	-126	132	31
-16	184	-115	272	31
-106	73	-142	270	31
-241	-427	-184	210	31
-157	-314	-110	136	31
-179	-69	-7	120	31
-120	-55	47	335	31
-41	186	32	805	31
20	72	-45	673	31
-111	57	-30	123	31
-211	146	-2	-345	31
-326	171	-61	-509	31
-347	186	-205	-100	31
-183	88	-226	-429	31
-98	128	-48	-386	31
52	83	212	-160	31
-103	231	305	-476	31
-196	504	-50	339	31
-318	389	-266	89	31
-614	143	-138	-772	31
-132	-385	269	-695	31
598	-943	801	570	31
648	-391	762	510	31
412	150	485	-386	31
-49	-2	36	231	31
-322	-48	-459	-300	31
-24	-346	-583	170	31
333	-244	-449	-4	31
511	-106	-235	26	31
30	-57	-32	527	31
-61	465	30	240	31
16	431	-79	576	31
-295	45	-19	-55	31
-154	-116	41	-191	31
-36	182	117	-10	31
165	508	21	976	31
163	290	-206	1471	31
10	-258	-378	1304	31
-98	-311	-508	560	31
-451	480	-151	-1515	31
-720	737	-113	-2211	31
-881	-213	-198	-2139	31
-525	-1272	434	-1303	31
535	-776	861	99	31
1298	-42	647	708	31
810	-151	89	1063	31
257	236	-152	742	31
70	113	-65	314	31
-156	-70	-81	-124	31
-150	178	62	-350	31
-282	-41	125	251	31
-234	52	80	651	31
-98	454	3	1201	31
191	658	-179	1125	31
643	458	-84	-6	31
272	128	74	-1346	31
-144	-329	121	-865	31
49	-946	370	-799	31
9	-844	258	-1037	31
-19	-226	-404	1373	31
-63	-39	-611	1200	31
-82	255	-364	57	31
-134	229	-315	-1153	31
-279	-337	-132	-1794	31
-79	-206	201	-391	31
21	11	136	-421	31
113	27	11	226	31
20	122	67	510	31
-4	131	106	600	31
87	273	151	709	31
-57	426	173	441	31
-134	264	-17	631	31
-441	-59	-284	111	31
-432	-149	-278	-183	31
-61	-101	-209	-491	31
216	1	-193	-500	31
267	37	49	207	31
-125	146	340	-151	31
-317	359	349	-246	31
-17	85	310	513	31
186	-396	116	-777	31
164	-203	-156	-923	31
227	30	-162	-390	31
236	-65	18	201	31
34	275	183	795	31
-57	544	12	554	31
-158	227	-143	1221	31
-389	-315	107	110	31
-446	173	397	-1054	31
-271	696	390	-843	31
-132	-217	191	-744	31
69	-2	-274	-363	31
501	1167	-851	994	31
220	319	-813	1201	31
-28	-1554	-436	193	31
315	-1532	-209	-505	31
573	-735	151	-294	31
661	-445	399	645	31
211	73	435	-153	31
23	-63	558	-1232	31
-82	-25	785	-309	31
-242	109	835	615	31
-108	94	226	-133	31
-214	537	-515	-549	31
-286	436	-961	763	31
-527	-51	-1201	1664	31
-706	-492	-794	480	31
-368	-143	-187	-49	31
217	404	186	-549	31
729	230	578	-303	31
449	96	578	458	31
204	147	281	-1335	31
378	186	189	-1298	31
-124	168	80	549	31
-491	241	-126	421	31
-392	-52	-133	-249	31
-94	-370	-123	21	31
512	-17	-165	-414	31
517	-57	-198	241	31
110	-117	-70	360	31
28	117	321	242	31
-50	50	574	814	31
-376	211	662	2	31
-769	363	572	173	31
-777	723	153	-53	31
-376	634	-472	-725	31
418	-455	-743	-1166	31
