File Name: not saved
Channel 1: 'EMG 1', 10156 values, raw ADC, no filters.
Channel 2: 'EMG 2', 10156 values, raw ADC, no filters.
Channel 3: 'EMG 3', 10156 values, raw ADC, no filters.
Channel 4: 'EMG 4', 10156 values, raw ADC, no filters.
Digitals combined (event=16, d=8, c=4, b=2, a=1): 10156 values, .

7	11	-1	14	31
19	-32	-6	31	31
4	46	-20	12	31
-16	128	-17	16	31
-31	176	-14	6	31
-17	346	-6	-21	31
1	418	24	-23	31
-62	75	39	-6	31
-37	-397	24	-30	31
64	-492	6	-42	31
108	-472	-11	0	31
44	-289	-31	22	31
-4	98	-26	43	31
-1	252	-2	56	31
-39	318	17	12	31
-88	231	26	-70	31
-115	299	17	-58	31
-77	194	11	-1	31
28	-337	-3	29	31
152	-566	-17	53	31
168	-447	-5	16	31
75	-92	-9	20	31
-56	97	-11	4	31
-92	239	-4	-16	31
-37	251	-4	4	31
-47	31	-3	-5	31
-31	-71	-7	12	31
0	-85	-1	14	31
-4	30	-1	22	31
10	-86	2	8	31
49	-163	9	-24	31
57	-65	-1	-18	31
54	2	-1	6	31
94	37	-4	-2	31
-2	30	-4	-1	31
-46	51	-2	17	31
-7	-5	-9	11	31
-22	51	-10	21	31
9	151	-10	24	31
-19	222	-10	36	31
-35	68	-11	12	31
-40	-114	-8	-54	31
-21	2	8	-55	31
28	121	12	-7	31
-12	148	10	-36	31
-43	32	15	-21	31
-79	82	16	50	31
-110	465	9	7	31
-85	573	9	-65	31
-22	-43	7	-75	31
62	-585	3	-44	31
102	-580	5	-19	31
77	-494	2	12	31
43	-305	-9	23	31
6	-101	-21	38	31
21	95	-19	59	31
49	385	-6	25	31
-11	274	-13	4	31
-30	-140	-14	14	31
-6	-260	-6	-7	31
2	-153	6	-39	31
27	-4	27	6	31
8	70	27	26	31
-21	76	20	-25	31
-24	62	-2	10	31
-35	94	-23	8	31
-34	212	-27	-21	31
-28	406	-22	10	31
-26	344	-4	-20	31
-46	-69	7	-5	31
-100	-307	9	50	31
-144	-357	4	54	31
-175	57	0	-17	31
-144	532	5	-24	31
-42	322	-5	20	31
80	-277	-6	-12	31
263	-709	-3	-15	31
264	-418	-3	-9	31
181	-153	7	12	31
193	-165	3	18	31
82	45	2	16	31
28	27	-1	19	31
7	11	-2	-3	31
-16	70	1	-21	31
-26	45	-2	-18	31
-44	92	-4	11	31
-37	60	-2	5	31
-72	123	-2	-2	31
-75	376	-2	5	31
-100	653	3	8	31
-123	470	9	2	31
-63	-221	1	-14	31
4	-695	-2	-14	31
37	-493	6	-11	31
134	-219	7	-3	31
111	-202	3	-4	31
6	41	0	10	31
26	34	-2	44	31
-39	15	-7	38	31
-71	97	-17	31	31
-91	55	-17	20	31
-85	193	-7	-60	31
-5	239	4	-109	31
36	328	16	-37	31
63	198	10	4	31
21	-122	-7	-7	31
-9	-130	-8	16	31
-2	149	21	26	31
2	224	28	31	31
-34	-209	-6	8	31
-10	-408	-16	-6	31
17	-228	-24	2	31
5	122	-19	7	31
-1	363	-1	26	31
-77	102	-3	7	31
-80	-234	-8	-31	31
-49	-44	-14	-19	31
-11	81	-11	-12	31
44	-337	6	-20	31
47	-198	21	39	31
36	148	13	62	31
46	75	4	32	31
27	-20	-3	13	31
-16	-191	-14	-7	31
11	71	-11	-10	31
-3	274	-8	-19	31
-24	-170	-3	-2	31
8	-310	-1	50	31
18	88	4	74	31
27	208	13	36	31
2	-106	3	-22	31
-39	-262	-9	-32	31
-37	-179	-7	-59	31
-21	-24	9	-61	31
-31	11	4	-36	31
-44	25	-1	-74	31
-13	77	6	-65	31
65	52	13	-9	31
104	104	17	1	31
50	165	-3	4	31
16	238	-12	12	31
-11	136	-17	15	31
-41	-74	1	24	31
-24	-143	9	17	31
-7	-29	4	5	31
36	156	10	19	31
28	88	2	23	31
-39	-53	-1	17	31
-80	-85	-12	14	31
-42	9	-12	22	31
39	68	0	21	31
-21	33	1	17	31
-32	54	-1	-1	31
23	200	-1	-40	31
17	683	2	-22	31
-15	928	-2	1	31
-83	467	-9	-5	31
-79	-222	-7	-3	31
-88	-725	-5	-10	31
-29	-956	-6	-6	31
51	-910	-8	21	31
34	-461	4	43	31
79	-45	21	84	31
93	41	16	90	31
8	60	5	68	31
-1	4	-1	12	31
31	-75	-2	-75	31
31	-45	-9	-24	31
59	168	-6	25	31
19	338	6	-60	31
6	224	14	-114	31
52	163	24	-81	31
12	69	2	-40	31
-36	-253	-24	-49	31
-28	-211	-23	-21	31
-31	45	-7	-26	31
-39	-107	-11	-34	31
-4	-170	-16	16	31
36	-6	-1	1	31
56	-3	-9	-1	31
34	41	9	27	31
-26	39	15	60	31
-69	27	-6	49	31
-68	97	-14	31	31
-81	198	-19	63	31
-63	432	-14	105	31
-27	525	-6	137	31
-51	389	6	29	31
1	181	4	-87	31
49	-242	2	-75	31
0	-426	3	-114	31
62	-97	19	-122	31
115	-27	27	-42	31
71	-408	1	-6	31
51	-463	0	14	31
32	-183	8	28	31
47	-63	9	7	31
-29	254	-1	-14	31
-91	433	-9	-11	31
-110	135	-22	4	31
-77	-245	-29	11	31
31	-399	-5	9	31
-47	145	12	3	31
-102	479	22	32	31
-82	42	8	66	31
-27	-272	-11	54	31
138	-200	-15	48	31
154	-169	-16	59	31
27	-173	-8	60	31
-17	178	4	17	31
3	227	12	-99	31
-36	49	10	-103	31
37	-109	3	-5	31
123	-248	0	-3	31
-4	16	1	15	31
-55	-44	-1	47	31
-4	-113	-3	48	31
-20	62	-9	8	31
-6	241	-11	-94	31
-19	828	-1	-53	31
-97	1147	-10	75	31
-158	617	-18	79	31
-153	-377	-5	54	31
-114	-573	12	-35	31
-55	217	31	-161	31
32	227	37	-92	31
14	-803	8	-10	31
-109	-1307	-11	1	31
-62	-751	-8	-16	31
81	-194	-14	-31	31
0	-225	-15	26	31
-67	-82	-16	42	31
232	157	2	28	31
545	24	24	-16	31
321	66	14	-46	31
50	245	4	-49	31
35	465	13	-29	31
-47	470	6	21	31
-43	-86	-22	50	31
-41	-299	-17	74	31
-17	-23	-1	69	31
30	42	-4	78	31
-1	9	-8	52	31
-12	-89	-3	-39	31
-58	-39	4	-80	31
-52	110	7	-41	31
-49	87	-1	-32	31
-79	166	-19	-50	31
-84	123	-17	-12	31
-97	116	-6	7	31
-136	179	12	10	31
-198	441	29	31	31
-183	919	27	71	31
-47	385	8	53	31
-46	-761	-23	-4	31
-155	-838	-36	54	31
22	156	-6	85	31
102	476	9	-17	31
-60	-365	-6	-149	31
102	-833	2	-137	31
247	-508	3	-19	31
153	-92	-7	22	31
195	32	-10	39	31
150	64	-11	42	31
60	51	-1	64	31
21	186	1	125	31
-50	422	-2	127	31
-52	169	4	-9	31
18	-89	7	-140	31
13	149	11	-80	31
-107	390	22	-34	31
-205	425	6	-67	31
-252	791	4	-70	31
-163	675	14	-49	31
-37	-482	-2	-52	31
53	-1337	-17	-34	31
145	-1206	-15	39	31
75	-625	-8	68	31
-12	-167	-8	105	31
-150	420	-4	106	31
-315	1138	8	46	31
-170	1246	13	-48	31
-64	242	-1	-124	31
282	-942	-1	-60	31
410	-991	-7	19	31
-59	-477	-21	29	31
-155	-274	-27	37	31
-77	112	-30	34	31
205	533	-2	6	31
385	655	5	-41	31
259	367	7	-70	31
171	-469	28	-14	31
194	-924	18	55	31
449	-537	27	22	31
500	-38	30	-15	31
75	366	7	31	31
-161	1396	1	31	31
-135	2117	-20	12	31
-374	1301	-19	54	31
-348	-821	-17	93	31
-319	-1975	-34	54	31
-168	-613	-11	-19	31
108	-193	6	14	31
79	-1282	3	41	31
69	-795	16	-129	31
-61	-115	32	-262	31
-140	408	28	-102	31
-27	942	9	52	31
91	767	0	90	31
-13	857	-15	128	31
-203	253	-34	124	31
-366	-899	-44	129	31
-615	-802	-41	72	31
-916	-585	-37	-57	31
-838	-646	-22	-119	31
-338	-241	-11	-73	31
-54	59	-14	-102	31
899	1163	27	-31	31
1618	1626	59	95	31
555	826	22	-34	31
-287	801	-2	-185	31
-413	-246	8	-221	31
-190	-1913	11	-67	31
393	-1395	24	46	31
696	-9	58	55	31
780	70	36	70	31
309	-24	2	45	31
90	389	-11	80	31
-44	1378	-26	59	31
-391	973	-29	29	31
-394	-790	-41	25	31
-601	-31	-3	-2	31
-665	607	7	-39	31
-954	-641	-49	-124	31
-764	-978	-37	-97	31
151	-305	6	52	31
1032	-502	-4	98	31
1503	-679	8	64	31
674	-2	16	43	31
233	-210	10	74	31
127	-201	19	146	31
-298	124	19	178	31
-124	86	15	224	31
-410	319	-31	247	31
-188	794	-36	178	31
625	1233	-15	2	31
266	586	-6	-188	31
-38	-238	20	-229	31
2	-306	30	-407	31
15	-267	44	-576	31
-230	449	25	-242	31
-1143	717	-40	36	31
-1647	269	-64	-66	31
-1664	582	-23	-98	31
-1002	-616	-5	19	31
196	-2064	3	80	31
1085	-1211	15	127	31
1321	138	-16	162	31
743	924	-25	113	31
302	1054	9	108	31
-123	69	21	64	31
-368	-67	1	-78	31
249	477	-17	-70	31
734	-47	10	107	31
877	-295	54	228	31
643	196	56	302	31
331	935	60	352	31
-52	1896	29	82	31
-332	935	22	-288	31
198	-1869	2	-285	31
294	-2064	-44	-155	31
117	-207	-21	-48	31
-160	461	-53	-72	31
-769	293	-36	-195	31
-818	90	60	-158	31
-802	-163	27	-93	31
-618	71	-32	-46	31
312	190	-7	-24	31
857	-231	7	112	31
454	203	1	286	31
516	1064	31	161	31
257	-183	26	-5	31
-380	-1124	-29	50	31
-134	505	-4	1	31
-87	1458	27	-110	31
-95	376	-15	-65	31
-65	-77	-61	80	31
-344	-926	-89	168	31
-608	-1545	-89	182	31
-835	-672	-118	303	31
-1013	-1183	-100	245	31
-545	421	-17	-82	31
364	2172	69	-351	31
523	-321	70	-338	31
226	-2077	6	-271	31
906	-1205	50	-52	31
1967	-133	97	236	31
833	42	39	156	31
189	-80	7	71	31
433	-323	30	47	31
-477	618	-22	-34	31
-155	880	-69	-244	31
-353	52	-52	-226	31
-639	1484	12	221	31
-196	2101	36	467	31
-214	523	6	418	31
-236	-1669	-22	189	31
-198	-2093	-86	-161	31
362	-893	-56	-239	31
772	643	15	-277	31
586	1269	114	-589	31
-392	990	136	-804	31
-733	161	138	-658	31
-808	-67	124	-89	31
-966	68	-12	52	31
-457	-366	-28	135	31
-345	-246	2	277	31
307	138	34	194	31
1001	-173	35	252	31
845	160	-2	87	31
-91	200	-27	2	31
-533	-118	-50	-9	31
3	-24	-64	41	31
284	-230	-29	211	31
524	510	-38	430	31
-145	720	-114	420	31
-269	-650	-77	317	31
-238	-1151	-95	203	31
-783	-955	-53	-132	31
-566	-146	62	-377	31
-352	1193	42	-357	31
95	1168	-1	36	31
421	52	-49	92	31
875	-1195	-14	-59	31
589	-1883	11	88	31
119	-731	21	-26	31
420	500	-18	-186	31
-128	485	-57	169	31
-265	-53	6	415	31
-201	-566	-17	382	31
231	-126	28	295	31
831	143	120	-34	31
233	-222	107	-354	31
-116	-618	34	-588	31
-156	-354	38	-791	31
-261	281	58	-665	31
72	278	7	111	31
287	732	-22	684	31
-125	592	-128	936	31
-416	-351	-236	945	31
-616	-318	-213	153	31
-767	644	-132	-327	31
-671	220	-103	-168	31
-331	-1551	6	-708	31
14	-1243	246	-1128	31
-161	-736	345	-449	31
-412	183	246	-146	31
-592	2262	137	-261	31
353	1723	83	-153	31
401	-723	-19	53	31
-49	-1780	-62	100	31
862	-1535	-56	162	31
-19	-581	-85	344	31
271	765	-60	342	31
1713	474	-79	468	31
1326	-115	-82	390	31
386	295	-19	57	31
-144	155	67	1	31
-137	378	84	88	31
-302	267	11	-217	31
-123	41	26	-423	31
-114	313	18	155	31
-19	366	-9	334	31
-150	953	-22	19	31
-375	1358	-31	10	31
-236	1688	-45	-123	31
-289	1366	-78	-143	31
-259	-971	-31	-185	31
-526	-1856	35	23	31
-899	482	120	502	31
-1350	1547	20	473	31
-1070	-819	-184	-39	31
-205	-1562	-90	-244	31
1106	270	20	-332	31
1547	-710	97	-246	31
664	-1215	145	434	31
599	-110	-38	736	31
334	-231	-233	1126	31
365	999	-298	903	31
402	722	-254	377	31
-119	-32	-18	-310	31
-361	436	262	-1669	31
-835	-685	305	-1883	31
-1100	-1140	215	-887	31
-694	-949	-9	-115	31
800	220	29	-320	31
1452	684	171	-255	31
118	113	45	-162	31
-122	768	36	-212	31
150	444	-45	-61	31
-22	435	-32	-167	31
71	478	37	-122	31
-452	308	11	535	31
-280	265	-29	1202	31
130	-427	-118	1644	31
236	-193	-145	1611	31
285	300	-163	942	31
-179	533	-139	-257	31
-66	477	19	-2135	31
-35	-158	227	-1823	31
-111	-1099	187	-30	31
-68	-1139	23	176	31
-155	-578	-6	309	31
-61	-590	-71	431	31
-170	-229	-120	224	31
19	65	-117	165	31
191	456	-173	175	31
-47	735	-144	439	31
55	-25	-70	315	31
43	-54	36	294	31
-107	1034	122	196	31
203	570	101	-620	31
-80	-873	60	-684	31
-650	-748	18	146	31
-898	-499	-78	663	31
-1283	-79	-150	761	31
-1075	476	-102	602	31
-348	-105	-59	86	31
767	349	122	-1376	31
2090	867	416	-2135	31
674	262	311	-841	31
-691	351	80	-42	31
183	-127	47	54	31
-466	152	-25	446	31
-199	955	-47	446	31
635	-948	-125	360	31
564	-432	-156	-80	31
472	1246	-105	-477	31
677	-392	-178	241	31
693	-926	-239	1346	31
-355	-743	-256	1416	31
-491	-441	-194	550	31
-606	-146	-44	-716	31
-650	-322	148	-1323	31
-146	583	408	-779	31
171	1163	523	-948	31
155	1100	350	-997	31
-442	2	191	-549	31
-289	-1759	125	59	31
128	-1453	10	999	31
145	-271	-135	879	31
452	-135	-221	588	31
577	-50	-179	-59	31
443	55	-65	-113	31
236	888	-57	236	31
-313	961	-64	-247	31
-765	-25	-10	687	31
-1042	395	-75	1194	31
-546	-30	-64	214	31
471	-1275	118	-476	31
658	-637	171	-668	31
948	82	82	-1273	31
1290	96	-17	-1183	31
610	354	-60	413	31
204	267	-49	191	31
201	854	-116	-61	31
-324	1726	-203	357	31
-502	806	-252	910	31
-336	-1014	-205	1824	31
-122	-975	-123	1062	31
-55	-817	-13	165	31
-230	-887	317	-812	31
-165	387	476	-733	31
59	-613	148	-355	31
-14	-737	-61	-1296	31
-191	492	70	-1025	31
-190	-493	2	242	31
-453	-257	-116	595	31
-382	110	-85	180	31
-93	268	-54	347	31
-485	1325	-57	-280	31
-1025	1537	-21	-648	31
-603	368	79	-340	31
324	-1051	49	-247	31
574	178	42	11	31
983	-104	142	-714	31
827	-870	204	-87	31
318	1269	114	1055	31
589	11	-85	980	31
127	-1075	-181	1092	31
63	-99	-195	919	31
125	-475	-141	235	31
-448	532	-117	-697	31
-552	1457	-100	-1322	31
-436	378	-67	-541	31
495	-990	-65	180	31
851	-542	52	-278	31
236	-338	145	462	31
-197	-1066	20	771	31
-471	-14	-136	-105	31
-236	75	-161	-85	31
-154	479	-89	-95	31
110	976	47	361	31
-26	-770	130	604	31
-593	-598	149	696	31
-537	561	277	-209	31
-550	1093	482	-2045	31
-2	-216	385	-966	31
259	-663	1	16	31
321	1886	-196	-264	31
332	-416	-183	295	31
-358	-1682	-141	-319	31
-29	787	-117	-211	31
647	-98	-272	-246	31
780	-226	-365	-127	31
48	37	-326	501	31
58	85	26	71	31
260	1170	291	415	31
-408	285	346	386	31
-409	-357	413	972	31
-780	-337	121	326	31
-375	-790	4	-696	31
287	-503	-93	263	31
699	-124	-244	1519	31
736	-148	-389	1712	31
160	74	-465	675	31
64	24	-152	-1082	31
-145	-29	107	-2469	31
-25	85	375	-1507	31
-57	135	404	433	31
-114	781	237	931	31
-429	1159	148	-172	31
-803	337	87	-1263	31
-510	-343	163	-139	31
-85	42	-17	787	31
477	-350	-181	177	31
41	-926	-259	400	31
-362	-371	-428	827	31
-103	-404	-402	787	31
82	-168	-195	855	31
251	583	111	-113	31
-717	1211	148	-1028	31
-1364	1660	-71	-1232	31
-24	-1163	-221	-349	31
1733	-2093	-142	928	31
1248	-365	93	503	31
300	236	262	-924	31
628	-199	376	-992	31
-34	-520	250	340	31
-30	38	82	512	31
-147	494	47	-521	31
-256	-158	169	-7	31
186	378	267	368	31
-152	1321	112	108	31
107	1127	-100	522	31
28	-306	-203	-418	31
-143	737	-73	-1240	31
-402	346	-236	-701	31
-216	-1146	-342	87	31
272	-552	-15	57	31
35	-1117	45	283	31
3	-644	92	576	31
-246	-365	163	111	31
-383	-169	119	184	31
-344	198	110	35	31
-156	-239	-215	572	31
268	87	-313	646	31
60	9	12	-594	31
-370	182	101	-644	31
-537	279	-17	26	31
-462	140	-123	-57	31
-17	402	-149	99	31
487	988	15	-65	31
824	1736	246	-783	31
561	532	154	-346	31
-265	-1299	-97	106	31
-269	-1127	-90	489	31
-297	-872	-85	535	31
-386	-852	-93	233	31
-270	173	9	308	31
-491	1418	-49	473	31
242	1357	-133	253	31
695	-1000	-86	-117	31
455	-831	42	-358	31
757	75	147	-516	31
460	-1131	121	713	31
185	-183	81	254	31
50	-23	126	-1357	31
-183	-148	145	-419	31
-16	301	-32	1096	31
-116	389	-284	1373	31
107	15	-237	-55	31
17	-451	62	-1477	31
-179	893	315	-1812	31
-464	1754	443	-784	31
-646	983	241	352	31
-179	-1043	19	-54	31
-40	-1300	-49	210	31
256	-1276	-170	503	31
90	-367	-92	238	31
-20	1375	2	351	31
146	-841	1	128	31
-180	-1471	27	255	31
-114	-235	89	71	31
160	-335	47	39	31
288	-33	-91	22	31
254	185	-133	-103	31
62	141	-191	239	31
-355	325	-168	169	31
-467	647	-107	467	31
-244	1079	-181	352	31
118	1245	-178	-16	31
241	354	-16	-89	31
-306	-537	4	-332	31
-5	-667	106	-228	31
364	-634	256	-64	31
177	18	175	-320	31
381	884	128	-502	31
69	274	135	-137	31
-141	-88	235	65	31
134	786	218	-46	31
65	700	50	441	31
-211	799	-239	1172	31
-618	78	-582	1076	31
-711	-986	-520	655	31
79	-221	-248	-101	31
684	-851	-98	-877	31
110	-389	54	-299	31
283	-268	65	-12	31
401	-1370	-32	-546	31
-140	-225	14	-372	31
135	151	99	-974	31
52	1194	267	-1059	31
-9	948	371	489	31
-374	-451	355	394	31
-612	1	175	-557	31
-186	-343	-25	302	31
299	-456	-8	580	31
618	110	-6	-282	31
209	-67	77	-669	31
-4	-55	68	-457	31
-22	175	-98	663	31
-26	-9	-69	338	31
-65	500	9	148	31
-230	794	42	414	31
-523	39	64	16	31
-771	-703	-37	381	31
-353	-262	-141	246	31
570	125	-151	256	31
1060	-181	-113	-9	31
266	403	-30	-206	31
-56	457	37	89	31
51	386	14	1	31
-474	849	-81	-93	31
-651	12	-126	-96	31
-605	-739	-108	42	31
-246	-102	-101	464	31
124	-16	-35	976	31
294	-330	-160	490	31
169	-46	-163	-1264	31
511	503	291	-2188	31
1191	365	332	-484	31
196	201	153	919	31
-292	398	105	945	31
-98	-659	-36	367	31
-358	-152	-8	114	31
-175	-36	24	394	31
-220	-833	98	15	31
-289	-102	144	85	31
-634	-893	-30	-330	31
-511	82	-99	-241	31
512	597	-140	376	31
1061	-706	-196	625	31
824	-303	-186	951	31
171	-433	-179	479	31
-125	147	-6	-493	31
-77	396	138	-728	31
-563	44	156	-393	31
-428	204	283	-1044	31
117	785	277	-844	31
424	732	37	-345	31
428	-19	-41	-192	31
-417	-115	-2	189	31
-448	-743	-71	103	31
-157	-717	-189	-1	31
276	-398	-237	171	31
537	-303	-178	784	31
53	-122	-142	654	31
171	-6	-136	192	31
49	185	-110	-1121	31
-93	394	37	-1373	31
-284	684	125	23	31
-187	289	114	-36	31
113	-250	70	143	31
-140	-117	-38	403	31
6	85	36	245	31
-108	75	65	285	31
-307	462	-31	-122	31
-454	990	-37	-19	31
-316	930	-24	803	31
274	-740	47	522	31
37	-1540	201	-3	31
-1	-303	232	-421	31
163	-272	131	-1223	31
67	96	61	-159	31
418	346	-57	50	31
6	-353	-107	-56	31
-321	164	-56	469	31
-132	291	10	213	31
-112	7	29	378	31
-1	168	-55	427	31
41	-27	-108	766	31
-87	-153	-172	568	31
12	-127	-111	45	31
370	-212	57	-570	31
175	-186	50	-764	31
31	-158	43	-1062	31
-290	-4	88	-1105	31
-669	568	97	77	31
-295	897	161	569	31
417	451	117	1044	31
859	-18	-47	1080	31
396	-92	-112	192	31
-373	-363	-120	-1393	31
-394	-72	-128	-1421	31
-609	1096	-161	4	31
-368	464	-82	-390	31
276	-584	-3	6	31
196	189	-31	539	31
523	-729	5	384	31
396	-1527	119	378	31
-121	-706	154	37	31
-127	-584	6	-97	31
-381	-190	-12	-287	31
-631	269	14	196	31
-42	920	7	165	31
626	488	-26	48	31
469	120	-40	96	31
520	518	3	32	31
451	-346	-42	-4	31
17	366	-16	-193	31
110	981	11	-33	31
-85	-464	32	204	31
-54	-852	107	407	31
295	-602	109	283	31
35	-390	-19	226	31
-135	-144	14	50	31
-105	95	25	7	31
-213	196	-79	17	31
-368	-241	7	83	31
-559	-297	-44	72	31
-457	-45	-65	-12	31
-36	136	-67	102	31
126	527	-121	146	31
61	1081	-109	589	31
60	857	-107	811	31
139	-657	-79	595	31
128	-1061	-14	-254	31
-49	-454	153	-1625	31
-63	-155	169	-1987	31
-41	815	124	-545	31
222	406	136	139	31
26	-275	113	-482	31
-856	137	105	-198	31
-356	47	-45	433	31
142	703	-213	391	31
225	795	-272	142	31
527	-453	-233	269	31
-51	-769	0	-39	31
-318	401	188	-216	31
-383	-100	194	32	31
200	-1180	179	129	31
777	246	174	166	31
145	-253	155	151	31
-693	-606	73	120	31
-626	520	7	2	31
722	224	-12	-16	31
1182	657	-31	64	31
410	608	-74	41	31
11	-40	-116	-87	31
31	-347	-74	-31	31
-160	29	12	73	31
-270	436	18	345	31
-244	694	-93	399	31
-14	642	-175	229	31
50	-231	-203	188	31
-145	-520	-154	86	31
109	-1351	51	191	31
84	-924	156	12	31
2	12	125	-384	31
-59	-486	69	-593	31
-262	149	-78	-428	31
-171	49	-65	125	31
-99	-124	7	372	31
-55	152	-22	482	31
-168	-79	-39	577	31
-46	500	-120	495	31
214	368	-184	129	31
74	505	-160	-530	31
-170	895	-69	-1350	31
-106	128	94	-1331	31
283	-434	154	-327	31
119	-530	153	39	31
-659	-196	198	75	31
-936	131	146	492	31
-309	-206	82	739	31
915	168	64	644	31
1167	302	-40	388	31
-62	-333	-13	-162	31
-177	-46	31	-85	31
-17	-151	-39	-393	31
-41	-309	84	-854	31
137	-60	86	161	31
-386	-232	-85	535	31
-446	-148	-181	69	31
-443	7	-206	-176	31
-122	733	-82	-704	31
424	1142	137	-815	31
471	-280	223	204	31
221	-847	128	559	31
-320	18	42	245	31
-754	389	-50	661	31
-645	1412	-65	356	31
103	529	-24	-247	31
926	-1441	8	-110	31
921	-265	-6	-140	31
470	-829	-148	50	31
226	-1452	-197	533	31
-12	111	-138	-56	31
-610	189	-9	-678	31
-1467	1637	146	-525	31
-1539	1775	163	-582	31
-197	-991	92	365	31
1601	-1816	-27	863	31
1414	-1321	-121	103	31
380	-883	-87	54	31
803	492	92	-165	31
583	836	213	-55	31
-232	130	206	141	31
-14	-112	85	160	31
-25	-449	-93	309	31
-114	130	-117	124	31
-214	528	-116	170	31
-444	697	-110	41	31
-233	504	-80	-125	31
-219	-694	-46	-173	31
28	-421	-35	57	31
161	-181	-34	186	31
-95	-52	-33	319	31
-241	240	-69	451	31
-325	111	7	-48	31
-299	433	81	-468	31
-358	317	-4	-478	31
-645	934	-64	103	31
-971	1112	-5	-16	31
-643	258	-47	-40	31
375	-219	-87	385	31
1434	-1237	44	-470	31
1182	-1062	165	-881	31
-75	-6	190	-512	31
-241	41	143	-231	31
147	174	152	199	31
616	-319	84	372	31
499	-526	-17	11	31
-230	414	-69	145	31
-122	929	-91	251	31
-381	637	-27	21	31
-460	-547	-64	113	31
-62	-343	-184	-164	31
213	576	-264	-98	31
755	-67	-176	-122	31
118	79	-29	-494	31
-375	961	80	-534	31
-484	1443	170	148	31
-843	-561	113	821	31
-91	-2151	69	242	31
649	-565	79	497	31
758	-182	27	439	31
-113	-148	-12	-435	31
-320	217	-22	-449	31
12	-241	-1	-392	31
-66	866	175	170	31
339	-418	205	568	31
-113	-972	-36	476	31
-552	333	-123	618	31
-620	1108	-223	674	31
-236	992	-204	380	31
410	-771	95	-37	31
611	-850	69	-186	31
628	-396	-26	-817	31
-120	283	208	-1695	31
-289	720	233	-728	31
-216	391	50	-151	31
-415	1436	26	-344	31
-141	653	-80	251	31
-65	-409	-156	292	31
-46	-773	-72	235	31
89	-1244	71	-75	31
199	-292	116	480	31
320	-781	-88	1050	31
397	-582	-140	155	31
214	-217	-140	-197	31
168	-672	-136	-269	31
19	284	-52	-726	31
-180	184	-61	-840	31
-90	290	-52	-227	31
-173	838	-4	169	31
-267	1271	-28	145	31
-252	805	-140	453	31
223	-264	-132	274	31
455	-168	-70	-56	31
9	-830	90	-108	31
-117	-745	306	722	31
23	-213	171	1639	31
268	-479	-7	854	31
45	-32	78	201	31
-358	194	153	-615	31
-315	298	120	-710	31
-412	81	105	-79	31
-395	-47	234	-914	31
-146	437	199	-425	31
213	377	-94	275	31
574	42	-203	-848	31
278	-148	-161	-603	31
-20	317	-177	185	31
11	854	-165	-36	31
-173	642	-127	73	31
-230	-51	-135	199	31
-98	-718	-18	169	31
438	-417	95	-147	31
505	-108	78	321	31
-106	-114	-39	681	31
-305	523	-93	-98	31
-289	542	-113	130	31
53	480	-127	-493	31
134	75	83	-1290	31
-169	-679	131	151	31
74	-306	132	833	31
-31	-659	181	626	31
-422	796	155	519	31
-377	1980	92	288	31
-332	56	-27	262	31
-128	-876	-53	-136	31
133	-1390	-100	-142	31
166	-1456	-123	403	31
237	-871	-72	249	31
339	-446	3	-473	31
575	282	-12	-516	31
644	98	-120	70	31
-82	453	-37	-249	31
-66	932	110	-281	31
134	743	168	-83	31
-211	567	174	101	31
95	424	-133	507	31
-67	1149	-502	-278	31
1	1	-469	-777	31
54	-2015	-17	-1068	31
-320	-1124	414	-650	31
-428	445	487	-238	31
-668	231	424	6	31
-251	-677	196	1106	31
502	-408	120	956	31
1187	-511	138	413	31
327	-735	-41	33	31
-311	195	-32	-524	31
333	-35	-145	-137	31
-193	124	-213	469	31
29	191	-146	469	31
-24	-75	-267	686	31
-247	395	-264	496	31
-137	720	-241	26	31
-523	1939	-10	-74	31
-221	650	178	-394	31
-13	-1468	107	-1098	31
136	-554	188	-785	31
-259	-1002	130	774	31
-367	-1167	-26	739	31
84	-2	-75	-117	31
559	26	17	-1103	31
381	211	107	-1587	31
-227	-126	11	-355	31
168	-128	-130	794	31
80	187	-113	968	31
-60	245	-9	783	31
-418	401	-30	575	31
-636	750	32	190	31
-328	1356	21	-308	31
-284	292	-53	-1031	31
501	-747	51	44	31
434	-421	77	1337	31
-261	-167	17	615	31
-69	216	-27	-156	31
491	-126	-113	-721	31
621	-327	-208	-1040	31
260	236	-120	-1553	31
209	-90	-22	-779	31
-14	205	77	146	31
-88	989	200	930	31
70	1431	201	1096	31
-115	659	280	383	31
-84	-1350	300	616	31
-190	-1028	108	211	31
-286	-356	-71	191	31
-216	-519	-134	-614	31
-160	92	-96	-517	31
44	637	-37	-21	31
-55	781	-68	219	31
-279	-196	-182	579	31
-353	-206	-251	-350	31
19	1015	-145	-226	31
492	418	24	378	31
384	-893	120	807	31
-7	-609	43	176	31
82	-120	-130	-29	31
277	-787	-82	-605	31
-33	-578	123	-1687	31
-39	11	52	-469	31
-103	-110	-172	239	31
-160	87	4	-202	31
-77	199	117	-126	31
-197	851	50	211	31
-198	768	159	665	31
-32	52	80	109	31
362	500	21	-668	31
189	120	30	483	31
-378	247	64	905	31
-329	-46	84	582	31
-33	-1578	-78	780	31
31	-1241	-76	553	31
-154	-569	-168	171	31
-69	-90	-294	-416	31
401	93	-123	-698	31
514	165	-6	-639	31
582	454	-35	-130	31
22	272	-145	-9	31
-554	349	-6	-73	31
-575	456	130	-115	31
-822	598	244	-1647	31
-380	-39	349	-1740	31
632	22	60	279	31
1196	802	81	784	31
508	-385	97	615	31
254	-363	60	669	31
334	-226	132	501	31
-101	-890	6	491	31
54	-35	-18	426	31
52	-223	-83	517	31
110	-86	-68	391	31
-165	52	-89	-97	31
-603	-193	6	-622	31
-699	1286	77	-204	31
-463	1676	-95	651	31
158	-101	-195	346	31
396	-1535	-394	-618	31
294	-1071	-347	-1079	31
144	-522	-87	-34	31
91	490	-43	447	31
-372	1436	-11	256	31
-532	-465	-1	108	31
-263	-1363	-2	-774	31
458	-194	151	-586	31
522	-391	161	-699	31
-506	-29	148	-21	31
-659	297	163	1191	31
-244	-169	135	572	31
586	537	110	125	31
575	417	141	-1005	31
-60	111	264	-992	31
-35	220	28	416	31
-309	443	-153	643	31
-475	1017	-151	669	31
-219	187	-180	108	31
161	-833	-115	-129	31
264	-431	-131	70	31
395	184	-62	-272	31
577	123	52	10	31
14	558	125	-118	31
-287	1648	93	-97	31
-291	322	20	1316	31
-168	-2072	-36	1073	31
171	-1537	-87	-842	31
251	-704	-6	-1779	31
-57	-176	31	-1227	31
-489	1816	192	-5	31
-264	393	285	430	31
60	-1191	59	4	31
190	-648	-40	175	31
117	-668	-119	417	31
185	-212	-131	196	31
260	-149	-76	663	31
-162	-108	-95	662	31
-555	232	-77	541	31
-717	285	-170	328	31
57	435	-113	-452	31
1025	163	115	-1058	31
837	122	226	-704	31
-23	264	168	37	31
10	455	86	-123	31
94	694	53	3	31
-237	1079	-69	120	31
-249	1393	-82	44	31
-375	-572	-38	233	31
-13	-1742	-52	413	31
320	-523	-14	176	31
400	-93	-27	-346	31
138	-176	-11	-680	31
-222	-914	11	-429	31
-673	-437	-27	426	31
-928	179	29	463	31
-70	-74	45	152	31
681	559	-80	218	31
790	34	-171	101	31
128	145	-197	-245	31
-488	807	-218	171	31
-683	1048	-153	736	31
-709	449	56	226	31
218	-651	156	-704	31
987	-458	259	-1126	31
605	-384	264	-282	31
-61	102	70	120	31
33	-100	-18	-70	31
191	-285	-42	354	31
153	208	-27	378	31
-42	350	-163	-612	31
-222	836	-69	-528	31
-170	-225	120	261	31
-232	-961	158	149	31
-39	-264	194	454	31
90	-26	34	241	31
151	80	26	-151	31
-46	587	6	171	31
-211	1694	12	355	31
-216	1153	-22	422	31
-310	-1526	-131	158	31
-275	-1988	-54	77	31
13	-555	-26	210	31
455	-62	16	101	31
133	489	-12	52	31
-162	707	-75	-114	31
-136	-373	-102	-175	31
52	-470	-118	207	31
496	-181	-45	-418	31
233	-281	46	-353	31
-168	-72	28	273	31
-414	150	-43	-686	31
-577	1324	60	-426	31
-450	1683	93	365	31
189	-910	53	238	31
862	-1977	144	17	31
398	-991	123	-22	31
139	-831	101	-413	31
104	-49	110	-957	31
-248	148	-59	-266	31
-218	188	-212	127	31
-107	608	-227	166	31
334	-229	-163	113	31
319	35	2	-56	31
72	116	82	221	31
118	44	4	-123	31
27	343	-65	169	31
55	170	-90	489	31
-97	401	-28	-185	31
-289	-34	10	156	31
-472	-221	-96	160	31
-767	113	-102	-206	31
-1052	735	-42	42	31
-830	1451	106	-69	31
348	631	257	340	31
1072	-268	140	471	31
440	-103	28	296	31
83	-276	-55	75	31
155	-598	-67	-418	31
285	-269	-4	11	31
808	-275	22	238	31
151	-207	62	208	31
-226	27	4	182	31
-57	140	14	-232	31
-310	424	84	-524	31
-6	-176	33	-405	31
-89	-436	-17	-77	31
-251	201	6	-79	31
-330	1420	72	43	31
-368	1730	7	78	31
-201	-1043	-103	32	31
120	-2144	-108	318	31
472	-1145	-95	747	31
581	-629	-45	959	31
592	-248	-79	559	31
130	165	-31	-317	31
-172	611	133	-1444	31
12	667	145	-1364	31
-9	-635	39	21	31
-141	-284	-58	98	31
5	-75	-47	-144	31
143	-26	5	67	31
-52	859	16	-125	31
-84	317	-36	-9	31
-54	-1	-19	-152	31
-105	-410	47	21	31
-109	-55	53	205	31
-362	596	-1	305	31
-374	-1	-61	585	31
-16	-425	-91	201	31
141	-125	-48	-181	31
197	453	64	-375	31
175	230	3	60	31
-22	115	-109	228	31
-75	403	-119	-150	31
-19	231	-89	213	31
-343	482	72	364	31
-501	687	166	191	31
-53	-670	87	-368	31
511	-900	78	-145	31
348	530	26	694	31
59	1227	-75	49	31
1	547	-30	-422	31
-704	-1001	-29	-1070	31
-793	-767	82	-969	31
-215	-505	146	434	31
696	-486	-6	359	31
1331	109	-61	216	31
663	-227	-37	95	31
-75	385	9	-115	31
-196	871	45	446	31
-290	426	71	473	31
-54	-504	34	369	31
393	-528	50	262	31
51	163	4	42	31
-135	-149	-102	-210	31
-193	-20	-104	-827	31
-255	-203	-41	-736	31
-139	-174	42	22	31
-243	355	14	199	31
-249	353	52	-126	31
-280	-118	-29	-29	31
-6	-520	-80	350	31
178	12	-34	219	31
276	740	-93	-31	31
518	1239	-14	9	31
-56	354	12	-123	31
-155	-1197	-24	-136	31
80	-1179	-93	199	31
-110	-181	-175	370	31
274	130	-161	403	31
39	135	-67	526	31
-107	183	36	547	31
85	-273	163	36	31
43	-487	267	-795	31
169	-174	306	-1389	31
-182	834	303	-709	31
-356	1112	85	435	31
-306	-307	-133	221	31
-57	-870	-234	55	31
214	-315	-224	-89	31
-53	26	14	-155	31
-94	296	149	-47	31
-98	113	64	-137	31
14	-212	19	95	31
146	-352	6	85	31
-196	203	-74	218	31
-90	675	-160	367	31
180	108	-172	452	31
89	-16	-100	244	31
-15	9	28	-22	31
-155	-21	140	-32	31
122	-469	39	95	31
169	-697	-163	221	31
-199	138	-30	-357	31
-346	17	191	-419	31
-433	-93	235	-113	31
102	-47	178	108	31
712	202	72	539	31
526	904	-26	129	31
-1	581	-148	-631	31
-63	183	-118	-615	31
-6	-465	-188	98	31
44	-327	-239	69	31
208	389	-75	-90	31
50	-343	-123	297	31
-156	-463	-75	278	31
-420	181	170	158	31
-443	-338	259	-148	31
-193	-585	143	-458	31
328	-82	36	-48	31
363	-144	4	76	31
-177	-112	75	-17	31
-36	-151	95	531	31
-110	383	-37	9	31
-229	1488	20	-250	31
220	1454	-110	201	31
210	-290	-151	50	31
-145	-1780	67	-79	31
-180	-875	29	-325	31
71	-385	28	-128	31
388	-85	-28	-272	31
491	598	47	-513	31
265	660	95	355	31
-16	308	-58	912	31
-103	-631	-79	904	31
-232	-650	-107	302	31
-305	-579	12	-934	31
-49	-49	118	-1206	31
154	198	73	3	31
-13	-215	-127	658	31
-386	529	-145	314	31
-323	1013	-46	-29	31
-117	782	-107	-730	31
-82	479	26	-564	31
99	265	120	-32	31
146	-265	87	122	31
-347	577	82	439	31
-609	849	127	449	31
34	-1714	71	167	31
358	-1394	74	114	31
555	373	26	482	31
463	1	-186	669	31
376	-393	-85	913	31
484	-662	-78	286	31
-161	-62	-110	-934	31
-14	-118	-19	-1128	31
-118	-123	34	-1057	31
-170	270	208	-684	31
65	-1	130	209	31
-183	-12	-19	362	31
49	130	-11	247	31
-158	367	-32	-144	31
-292	113	5	-562	31
-309	474	74	184	31
-185	582	24	610	31
265	275	-65	878	31
365	81	-98	820	31
-61	-618	-108	-247	31
-342	-294	-57	-830	31
-59	-60	-122	-545	31
124	179	-147	-256	31
299	842	10	-305	31
79	649	93	-267	31
-213	249	103	-77	31
-129	-505	-52	37	31
-122	-376	-239	48	31
-14	219	-332	87	31
-162	-376	-296	-24	31
-409	73	34	191	31
-219	-491	344	605	31
405	-1281	467	433	31
880	122	411	600	31
325	-241	268	404	31
-27	-128	130	-303	31
88	370	19	-112	31
-77	-72	4	-162	31
29	296	-84	-76	31
-239	-204	-158	126	31
-552	-242	-143	-273	31
-641	212	-133	-355	31
-539	1140	-198	194	31
-112	1854	-248	493	31
521	-95	-150	157	31
875	-1241	-95	-132	31
39	-508	46	-756	31
-62	-903	179	-575	31
228	-594	163	367	31
242	-166	115	394	31
315	-478	56	253	31
-149	14	42	-39	31
-201	32	-50	-242	31
-334	228	-65	59	31
-46	230	-7	-279	31
177	350	33	-334	31
225	798	108	257	31
181	362	212	368	31
-374	169	251	-22	31
-193	122	143	-413	31
18	-19	54	-389	31
95	94	-143	-204	31
-111	601	-363	-406	31
-339	108	-381	-913	31
-297	-705	-213	218	31
-8	-425	-16	1426	31
399	-464	67	751	31
150	86	-51	238	31
-28	610	-108	19	31
-59	647	-14	-204	31
-315	321	-12	-183	31
-44	-592	-3	-2	31
209	-217	-27	411	31
418	-48	-21	501	31
521	-403	-11	74	31
-22	-173	123	-576	31
8	48	295	-913	31
-37	-6	158	-370	31
-118	-300	-5	-17	31
4	150	-24	147	31
-95	-166	-84	482	31
-71	-389	-151	467	31
-208	489	-139	410	31
-138	135	-58	-216	31
-175	-2	124	-208	31
-334	-30	209	337	31
-212	-6	227	21	31
134	348	130	-107	31
441	-506	62	-95	31
257	-476	84	-200	31
-6	281	5	-17	31
26	169	-10	-85	31
-140	333	-136	-220	31
-181	-247	-213	19	31
-98	-543	-93	122	31
-106	157	24	357	31
120	-67	87	-92	31
38	94	106	-1032	31
138	24	109	-820	31
57	-205	103	-16	31
-347	67	90	171	31
-487	522	47	259	31
-493	828	-33	750	31
122	-364	-143	731	31
591	91	-141	600	31
247	564	-206	95	31
-226	-432	-358	-544	31
-165	158	-337	-481	31
54	-333	-97	-478	31
406	-424	9	-469	31
603	247	82	-181	31
439	376	385	429	31
292	1009	386	1082	31
97	197	143	854	31
-18	-680	-4	5	31
-183	-563	-36	-1174	31
-202	131	-37	-976	31
-333	31	-58	-152	31
-461	-632	-5	-319	31
-397	-340	-15	87	31
-225	-214	-213	150	31
-15	173	-285	287	31
-105	385	-59	355	31
-198	-369	142	-24	31
-84	-718	139	216	31
548	-272	-10	614	31
831	229	-86	213	31
256	608	-73	47	31
88	203	50	112	31
95	-341	272	-630	31
-56	120	179	169	31
-75	248	136	133	31
-125	-110	173	-395	31
-106	259	-25	131	31
1	495	-9	-219	31
-184	-523	-32	-138	31
-353	-744	-97	-316	31
55	-244	12	39	31
171	-286	63	586	31
359	303	16	355	31
224	844	-97	659	31
-213	1734	-218	890	31
-26	1415	-317	570	31
-117	-944	-302	-228	31
7	-1408	-173	-1226	31
41	-646	117	-2118	31
-219	-292	311	-1146	31
-487	-62	248	83	31
-741	-411	110	158	31
-520	-100	-41	193	31
-165	570	-90	42	31
347	599	-11	257	31
544	704	64	143	31
84	-151	-3	216	31
106	-1253	-47	362	31
689	-281	3	345	31
262	469	25	396	31
219	206	45	207	31
587	369	65	238	31
-121	-153	-138	5	31
-217	-348	-352	-70	31
-16	-70	-239	272	31
-231	142	-17	-49	31
-421	437	135	-507	31
-311	37	62	-126	31
130	-277	-2	48	31
433	-459	112	76	31
247	-423	85	511	31
-35	-62	55	581	31
3	221	0	796	31
-103	709	-52	263	31
-56	379	72	-1097	31
-70	-438	208	-1087	31
-118	-37	226	-590	31
-10	398	144	-530	31
-62	11	136	-105	31
-17	-189	46	31	31
-1	141	-171	-37	31
33	12	-194	181	31
44	-504	-113	-1	31
-82	-222	-89	136	31
-236	-257	-32	-42	31
-274	-197	22	-321	31
-248	589	29	467	31
-403	1536	-6	671	31
-408	2043	39	312	31
26	988	-7	308	31
258	-997	-124	-7	31
431	-2159	-123	-323	31
543	-887	-77	-157	31
-123	-16	11	-139	31
-499	-543	49	-157	31
-525	-470	57	-138	31
-295	-351	-9	-164	31
525	786	-55	-295	31
959	419	-68	-142	31
410	-686	-119	243	31
-228	-242	-50	252	31
-152	-342	107	205	31
-169	37	207	201	31
-43	141	196	427	31
98	83	93	580	31
103	574	-70	343	31
-97	179	-97	421	31
-186	22	-64	221	31
302	208	3	-779	31
418	-333	68	-807	31
176	-307	-42	-140	31
-160	953	-118	-404	31
-37	733	-104	-463	31
134	-537	36	-86	31
146	-396	203	9	31
-21	-75	230	284	31
-482	-126	131	133	31
-59	-242	-21	141	31
317	-135	-88	137	31
-74	-34	-56	-310	31
-214	-236	-34	234	31
-333	64	-94	578	31
-76	-12	-88	34	31
395	21	-25	-322	31
150	142	-14	-502	31
4	-32	-12	-176	31
-308	421	-97	-104	31
-519	1419	-39	-403	31
-115	1638	11	-133	31
-105	-1152	-52	-11	31
43	-2117	42	-116	31
540	-1143	9	172	31
590	-871	11	506	31
60	-141	21	625	31
-113	120	-61	549	31
38	-148	-51	-49	31
-115	416	-35	-317	31
43	103	-57	-304	31
-214	305	-47	-678	31
-503	270	108	-110	31
-294	196	166	454	31
12	221	77	254	31
440	94	-27	127	31
211	204	-119	-279	31
-155	-105	-121	4	31
21	-94	-61	446	31
44	2	-17	387	31
-87	397	50	115	31
-38	1091	104	18	31
-416	368	108	-1	31
-933	-616	114	18	31
-583	310	29	335	31
630	1257	41	-376	31
1268	553	78	-562	31
704	-618	-42	-388	31
314	-726	-82	-319	31
226	-359	-9	186	31
-107	-543	54	-185	31
-529	-312	143	-307	31
-857	67	178	-57	31
-640	-113	72	20	31
183	-263	21	151	31
1003	7	-9	459	31
606	72	-17	486	31
139	212	-21	383	31
155	341	-73	191	31
-136	548	-62	-230	31
-45	920	-58	-469	31
-226	297	-115	-376	31
-315	77	-159	145	31
-427	-604	-193	355	31
-56	-1348	-240	596	31
607	-481	-128	497	31
101	-228	1	16	31
-233	475	121	-529	31
-107	396	193	-709	31
-153	-819	99	-430	31
-23	-384	79	-486	31
-33	52	27	-173	31
-350	321	-21	-63	31
-420	325	-34	-61	31
-284	239	-69	174	31
396	1091	-15	185	31
497	524	25	150	31
141	-940	55	87	31
262	-638	57	261	31
-213	-241	-15	236	31
-161	-504	-36	3	31
-70	-103	-9	53	31
-115	-123	69	208	31
98	113	92	103	31
-42	946	19	-233	31
12	826	-44	-38	31
-156	-247	-51	-9	31
-88	-502	4	-88	31
135	592	-22	150	31
325	109	0	-24	31
265	-789	1	139	31
-195	-319	-16	255	31
-339	77	10	251	31
-539	351	-49	175	31
-138	690	-33	-192	31
348	-179	-34	-433	31
421	-1240	9	-405	31
453	-519	72	-166	31
-36	-13	46	4	31
-224	11	32	85	31
-198	117	12	-9	31
36	39	-32	266	31
502	204	-32	147	31
160	189	0	-315	31
-560	191	-6	-131	31
-525	146	11	-15	31
-394	20	-2	35	31
67	41	-38	53	31
803	428	-37	-1	31
639	754	7	37	31
190	431	4	-1	31
-29	284	-17	42	31
-62	-134	-18	79	31
-19	-884	-32	94	31
-60	-565	2	100	31
-89	-160	-5	133	31
-20	-580	-9	266	31
-1	-329	-21	121	31
42	-7	-44	-112	31
-28	-29	9	-244	31
-20	135	50	-317	31
-52	18	74	-47	31
-372	502	131	-113	31
-369	-102	149	-271	31
-207	-694	50	55	31
16	251	-49	128	31
211	-124	-85	77	31
42	-62	-76	84	31
4	309	-49	11	31
26	159	-39	16	31
34	715	7	-178	31
63	346	11	-181	31
-381	-177	-35	77	31
-464	-305	-9	-1	31
-132	-328	13	-53	31
239	-244	43	70	31
640	103	80	188	31
249	623	21	189	31
-100	-201	-45	32	31
-73	-555	-45	-8	31
-106	4	-40	-100	31
-194	775	-47	-74	31
-891	2009	-38	21	31
-1209	1167	-74	-7	31
-450	-803	-70	32	31
591	-1402	33	30	31
1510	-1659	83	-16	31
1176	-1117	75	-95	31
281	-264	56	-43	31
366	-137	24	62	31
52	-112	-15	44	31
-42	-45	-36	13	31
156	-23	-20	17	31
-97	50	-1	34	31
22	132	14	34	31
-47	178	7	-17	31
-6	205	6	-63	31
-25	189	16	-16	31
-119	176	11	20	31
-43	177	0	24	31
-100	193	-48	-7	31
-180	145	-58	-4	31
-411	122	-4	34	31
-292	174	14	-9	31
-94	144	-4	-14	31
-40	274	3	16	31
7	247	9	10	31
-139	-164	0	30	31
-97	89	-5	42	31
-37	389	-13	29	31
-163	-93	-14	20	31
-12	-265	-9	22	31
219	-216	-6	-20	31
146	98	1	-54	31
80	262	14	26	31
52	-160	17	19	31
-17	-172	27	-13	31
59	-82	34	16	31
131	-71	31	-60	31
42	148	32	-111	31
56	158	0	5	31
4	-135	-39	124	31
-49	-71	-11	42	31
-16	181	19	-74	31
-82	237	-13	-122	31
-65	62	-37	-52	31
-107	-220	-37	-18	31
-100	140	-23	-45	31
-3	330	-25	-3	31
135	-45	-24	-30	31
161	-186	1	-49	31
-24	-391	31	-42	31
-24	-489	47	58	31
-150	555	36	103	31
-253	1221	20	27	31
-67	54	-7	12	31
-140	-360	-3	18	31
-152	141	8	9	31
10	-55	19	15	31
198	1	31	21	31
124	-282	-2	-3	31
-39	-946	-9	27	31
172	-430	-9	51	31
207	-382	-57	-19	31
206	-553	-39	-15	31
148	-16	-2	72	31
-10	-97	-22	15	31
-193	98	-17	-6	31
-133	77	1	64	31
151	-27	7	-24	31
175	148	9	-32	31
84	28	17	39	31
-11	85	19	31	31
-64	98	14	15	31
-68	499	1	-74	31
-2	362	-5	-89	31
-27	-263	-9	-47	31
-39	-21	-19	-69	31
-79	46	-13	-10	31
-155	191	-1	24	31
-108	586	12	-13	31
-118	374	12	-8	31
-75	32	-7	17	31
58	-430	-31	10	31
168	-522	-12	12	31
-67	-426	2	7	31
-680	-348	-6	-6	31
-887	127	-4	2	31
-339	115	9	-17	31
434	216	44	44	31
739	419	18	100	31
354	192	-24	68	31
187	21	-13	12	31
59	-88	2	-70	31
72	198	29	-57	31
329	295	15	-17	31
137	145	-9	-67	31
198	474	42	-51	31
-76	285	16	14	31
-84	-284	-28	-20	31
77	-166	-1	-30	31
62	-103	7	19	31
124	-548	22	19	31
116	-475	19	35	31
410	-115	36	56	31
82	-105	-29	4	31
-77	-217	-103	-6	31
-171	-297	-64	23	31
-174	-17	-14	30	31
-36	351	7	-7	31
-205	877	-25	-102	31
-168	928	-30	-81	31
-195	-55	-23	-26	31
-75	-1048	6	9	31
-80	-871	37	71	31
-64	-331	25	95	31
-25	-442	30	77	31
-103	-2	16	41	31
-177	88	19	35	31
-90	66	36	-26	31
342	305	14	-42	31
173	84	-28	41	31
-107	163	-33	21	31
-9	95	0	-42	31
-31	173	19	-76	31
36	125	25	-26	31
-163	-193	1	32	31
-175	-224	-37	-34	31
-51	-57	-31	-51	31
9	215	6	-85	31
199	128	-18	-95	31
-93	11	-29	6	31
168	42	2	34	31
488	275	12	69	31
-129	703	39	130	31
-489	553	24	82	31
-844	266	-11	-29	31
-613	434	49	-69	31
365	-228	49	5	31
385	-1032	-28	-9	31
430	-659	-43	-29	31
911	-278	-77	-17	31
522	-206	-51	-127	31
9	-20	7	-79	31
97	29	1	42	31
0	129	-2	47	31
-241	171	-24	44	31
-379	-88	-14	29	31
-290	-144	5	27	31
2	-69	22	44	31
43	135	23	33	31
-80	490	12	23	31
-81	262	19	31	31
-150	-108	4	31	31
-120	218	7	24	31
363	-312	12	9	31
197	-920	1	40	31
54	224	0	52	31
97	532	7	-17	31
-105	293	3	-31	31
11	200	-12	-29	31
-88	-585	-6	-77	31
-17	-378	10	-41	31
-175	157	-10	-30	31
-565	582	-27	-13	31
-950	571	-6	34	31
-904	-587	-21	-14	31
231	-610	-1	41	31
1121	83	65	95	31
970	-36	31	13	31
301	-171	-12	-32	31
170	-159	19	-8	31
156	-236	16	31	31
101	-128	2	97	31
112	180	4	76	31
-79	90	-7	-55	31
-7	88	-8	-113	31
-93	82	-27	-128	31
-201	9	-17	-96	31
-431	423	-8	-25	31
-543	264	-9	39	31
-280	-92	0	41	31
133	154	22	-6	31
415	138	34	4	31
-5	211	-27	-20	31
91	329	-44	-1	31
216	-39	-26	-5	31
-183	-475	10	-55	31
19	-446	42	-82	31
-78	20	30	-7	31
-50	32	48	89	31
202	-249	2	40	31
4	-305	-31	16	31
-539	86	-41	-24	31
-749	640	-70	-26	31
-199	1350	-16	46	31
292	1107	26	46	31
391	-1196	2	25	31
-4	-1357	18	-5	31
300	475	50	-31	31
626	324	12	-26	31
531	-393	-11	48	31
289	-1136	-34	115	31
-169	-1026	-54	116	31
-229	-270	13	17	31
-165	-232	59	-122	31
7	265	52	-66	31
-24	260	34	2	31
183	197	24	-32	31
52	423	-30	4	31
-97	166	-72	-32	31
-53	220	-59	-132	31
-367	365	-65	-69	31
-104	-151	-11	17	31
250	-611	45	74	31
17	37	35	54	31
-492	188	-9	-55	31
-180	101	-35	14	31
132	320	13	60	31
85	-26	34	26	31
106	20	9	4	31
-385	47	-18	-51	31
-256	115	-14	15	31
-178	573	-11	29	31
-121	649	-50	1	31
229	188	-32	-14	31
113	-386	-32	-6	31
-4	181	-41	83	31
37	1438	40	176	31
573	573	58	232	31
415	-1453	67	98	31
-71	-1158	116	-43	31
-22	-440	85	-94	31
-22	-508	14	-106	31
-208	-22	-49	-115	31
-320	341	-70	-145	31
-175	678	-63	-26	31
122	459	-38	106	31
421	-131	15	52	31
39	-819	-1	-89	31
-42	-859	16	-145	31
92	22	55	-133	31
188	373	95	-44	31
209	412	155	160	31
-376	-166	125	229	31
-352	150	44	237	31
-196	177	-133	136	31
133	-602	-252	-166	31
278	-125	-232	-211	31
-34	-287	-141	-229	31
6	-168	-3	-202	31
-2	20	84	1	31
-124	136	219	-9	31
52	419	160	-38	31
191	-148	-59	-163	31
-217	579	-106	-103	31
-246	692	-186	39	31
-237	-418	-242	33	31
50	-491	-125	83	31
443	-148	32	73	31
5	161	103	110	31
36	246	118	54	31
228	-54	125	31	31
87	-239	133	24	31
-6	-8	113	32	31
25	-38	-22	54	31
-34	54	-107	8	31
-109	275	-68	72	31
-151	867	-31	70	31
-242	1155	-49	6	31
-113	-321	-57	-21	31
-9	-1088	7	55	31
145	-461	85	135	31
89	-222	130	107	31
-128	507	91	54	31
-279	1130	50	97	31
-300	-476	67	113	31
-75	-1301	21	-18	31
44	-102	-93	-115	31
216	-410	-108	-188	31
261	-227	-24	-200	31
93	863	-36	-189	31
5	234	-36	-127	31
-112	-535	-25	-38	31
-76	-311	-66	-4	31
184	-84	-89	0	31
-11	93	-75	-37	31
1	862	11	17	31
177	131	85	114	31
-90	-755	254	215	31
-150	64	401	223	31
-398	239	319	149	31
-273	-260	94	12	31
117	-282	-141	-143	31
343	350	-272	-184	31
420	305	-388	-163	31
-45	206	-327	-36	31
71	-15	-105	36	31
53	-685	-32	89	31
-137	1	11	7	31
-1	19	95	-9	31
-436	103	189	66	31
-641	521	141	-22	31
37	462	79	11	31
607	1354	108	-148	31
209	518	19	-160	31
538	-844	-55	-11	31
461	-308	-51	-2	31
24	-771	-38	49	31
151	-822	-120	84	31
-327	-51	-218	148	31
-11	-568	-103	94	31
-55	33	175	143	31
-100	-9	317	130	31
-45	-356	274	27	31
-204	279	227	-80	31
-20	18	62	-187	31
-112	311	-178	-97	31
39	453	-432	-64	31
-243	715	-403	-28	31
-194	97	-98	3	31
72	-813	-61	-6	31
147	87	-77	-15	31
224	-199	-60	-32	31
-37	98	-34	9	31
-161	661	-2	60	31
-237	-226	-28	-21	31
-43	-465	19	-156	31
236	-479	58	-125	31
102	148	131	-54	31
-102	302	93	-37	31
-30	818	105	42	31
-216	1848	205	168	31
-84	-154	279	100	31
199	-2052	312	65	31
70	-1390	203	94	31
102	-641	95	68	31
-107	-446	-218	50	31
90	-406	-532	-31	31
164	-159	-373	-96	31
-375	68	14	-75	31
-158	50	205	94	31
-30	-70	209	98	31
-80	39	93	-55	31
21	505	-20	-123	31
-17	728	-98	-175	31
201	756	-211	-94	31
112	191	-135	37	31
-1	-530	69	108	31
281	-151	92	203	31
287	495	24	108	31
-54	479	27	-36	31
-29	267	42	-32	31
64	-255	-69	31	31
-77	101	-63	22	31
-146	1027	-57	-185	31
-233	-79	-336	-110	31
-125	-465	-223	63	31
-56	633	65	26	31
-243	16	66	-46	31
-236	-202	112	-98	31
101	753	233	98	31
538	-378	236	252	31
221	-1106	113	72	31
39	34	47	-105	31
240	-609	3	-94	31
-65	-312	-98	-81	31
152	181	-16	-45	31
62	-209	141	25	31
-120	404	31	-34	31
6	535	12	-40	31
-188	1577	-46	50	31
-264	647	-173	-1	31
-105	-925	-143	44	31
102	-383	-59	193	31
61	42	100	295	31
-143	1340	46	246	31
-223	380	36	59	31
107	-1391	57	-116	31
137	-967	100	-417	31
-182	-663	141	-439	31
18	-177	-74	-119	31
329	-399	-140	36	31
-84	-315	-166	130	31
-353	481	-204	194	31
-194	373	-120	12	31
-176	-366	-64	-276	31
123	-245	-33	-216	31
185	159	-14	-12	31
302	-296	10	-48	31
284	184	22	-36	31
-153	414	50	31	31
-80	232	107	108	31
-59	-133	123	150	31
-183	-199	54	117	31
-299	437	-21	30	31
-233	300	-31	23	31
64	471	26	40	31
244	150	42	-49	31
517	-381	31	26	31
216	-63	64	2	31
-103	527	70	-24	31
163	-115	67	4	31
78	-868	0	-16	31
93	-95	-56	62	31
57	-26	6	111	31
140	343	69	185	31
216	586	73	133	31
-263	97	34	70	31
-492	-17	6	37	31
-262	-224	-19	-44	31
147	-146	-30	-102	31
12	27	-37	-164	31
-92	333	-74	-75	31
27	-44	-79	14	31
-7	-684	-24	20	31
4	-268	1	-24	31
-95	106	-7	-24	31
-239	62	112	133	31
-398	-7	187	132	31
-136	321	132	38	31
138	177	43	30	31
309	-9	-95	-107	31
243	613	-196	-222	31
-397	317	-213	-98	31
-483	-237	-79	-26	31
-117	-464	34	-68	31
381	-593	99	-100	31
601	-481	55	-69	31
186	-332	-92	-5	31
90	61	-78	64	31
197	-122	-117	151	31
85	-379	-97	100	31
6	-158	29	24	31
62	52	21	-27	31
55	270	-31	-115	31
-37	44	-29	-151	31
-256	1	-2	-32	31
-209	304	26	22	31
45	686	67	34	31
-173	842	66	66	31
-272	-112	54	29	31
-236	-202	78	87	31
-339	252	97	60	31
-92	176	98	-14	31
413	953	73	-6	31
599	-181	-10	-1	31
224	-1477	-109	-37	31
11	-277	-107	-30	31
-264	95	-69	0	31
-364	-176	-75	73	31
-7	-527	-44	106	31
128	-178	-16	-29	31
353	247	12	-58	31
295	-184	52	-64	31
237	57	16	-90	31
2	24	14	-37	31
-166	395	15	31	31
104	834	-23	90	31
-16	-87	49	152	31
-97	-366	77	81	31
-108	398	31	-27	31
-47	-192	-29	-20	31
8	-934	-96	-37	31
-176	-231	-106	12	31
-345	21	-57	23	31
-346	125	28	-16	31
-224	-16	46	-52	31
-97	-82	55	-96	31
297	353	69	-16	31
453	393	31	47	31
117	618	-17	27	31
4	38	-29	-20	31
-60	-641	-11	-27	31
-59	-317	-6	-3	31
-52	-194	-6	-7	31
-214	38	16	42	31
-153	-6	0	-11	31
-31	-88	-39	-27	31
89	432	-62	-2	31
181	107	-72	-41	31
133	-246	-7	26	31
16	88	4	11	31
-14	180	36	29	31
156	79	117	53	31
123	-239	96	23	31
-88	-93	51	1	31
-148	219	34	-36	31
-133	426	7	22	31
-357	1079	-31	17	31
-370	693	-74	-105	31
310	-776	-74	-77	31
461	-898	-9	40	31
125	-257	42	32	31
118	-479	31	51	31
-1	-297	-11	65	31
60	21	-21	55	31
152	61	-36	11	31
-105	604	15	-39	31
-176	476	66	-54	31
-24	-203	57	-97	31
77	-467	-2	-70	31
-158	-619	-128	-68	31
-394	-254	-145	-11	31
-169	-105	-130	37	31
110	-50	-59	-6	31
231	716	11	19	31
133	1404	23	21	31
-78	1437	53	50	31
-57	-422	50	79	31
135	-1342	87	24	31
184	-69	145	21	31
105	-666	87	12	31
75	-772	-5	-43	31
115	30	-9	-17	31
135	-247	-69	6	31
-46	186	-102	-13	31
52	17	-34	16	31
52	-68	11	40	31
-195	189	1	46	31
-165	305	20	37	31
-287	602	36	63	31
-194	332	50	115	31
116	914	24	42	31
34	404	-52	-64	31
-23	-1431	-67	-60	31
105	-1020	-66	-47	31
14	-416	-27	-132	31
26	-305	-6	-135	31
52	260	-1	-39	31
-74	37	27	27	31
-395	-255	37	6	31
-962	-261	39	-11	31
-503	47	47	9	31
766	249	2	-107	31
987	461	-35	-132	31
174	967	-28	4	31
-142	1261	-14	79	31
65	138	21	56	31
296	-1146	13	54	31
398	-290	27	97	31
145	-70	1	88	31
-72	65	-37	31	31
-282	266	-29	-14	31
-388	-613	-19	-24	31
-479	-120	24	-9	31
-370	123	-12	24	31
55	-165	-16	9	31
131	-236	2	-44	31
-105	-252	6	1	31
-68	95	47	71	31
157	149	49	42	31
289	311	87	-2	31
494	126	104	-11	31
376	135	50	-24	31
-14	33	-69	-118	31
-245	-36	-136	-147	31
-281	613	-41	-22	31
90	452	-11	62	31
422	-254	-36	108	31
339	-317	6	95	31
-95	97	12	24	31
-223	-150	-11	-22	31
-34	-512	-68	-146	31
-68	-177	-65	-131	31
-189	627	17	-10	31
-496	1086	2	1	31
-342	-246	-20	32	31
11	-1080	40	31	31
69	-52	64	37	31
160	318	35	33	31
107	452	-16	19	31
37	161	-52	34	31
-63	-404	-36	54	31
-100	-353	8	36	31
-49	-747	37	-85	31
-131	-482	19	-74	31
-254	-63	-7	-24	31
-295	-231	-14	9	31
136	-120	4	55	31
424	130	1	37	31
239	171	-7	54	31
211	394	19	70	31
246	712	40	141	31
206	280	62	155	31
18	133	21	70	31
-30	-26	-39	-43	31
-41	-198	-6	-109	31
-70	-126	22	-110	31
14	-690	-12	-145	31
-70	-433	-1	-98	31
-39	137	-31	-99	31
-89	-96	-67	-39	31
-160	42	-2	57	31
-401	232	-11	35	31
-787	85	-3	43	31
-406	314	-1	9	31
143	993	19	-13	31
539	616	70	-36	31
493	-892	3	-77	31
343	-506	-43	-37	31
572	52	-12	14	31
98	-298	-9	76	31
-90	183	-17	110	31
39	-185	6	36	31
-176	-87	-16	-46	31
-5	160	-18	-57	31
120	-64	0	-52	31
-72	211	-15	-55	31
-285	-34	21	16	31
-367	-27	41	50	31
-330	-36	-11	26	31
144	365	16	122	31
106	978	71	127	31
-312	128	65	31	31
-220	-810	15	-2	31
-278	-216	-28	-179	31
187	251	-67	-219	31
746	-464	-107	7	31
342	-380	-98	14	31
97	113	-45	31	31
352	241	29	111	31
36	598	31	70	31
-276	786	42	93	31
-516	647	26	15	31
-466	-547	6	18	31
-241	-1534	-4	69	31
-118	-861	-45	4	31
771	-335	-1	-55	31
557	-94	27	-37	31
47	304	77	19	31
248	126	49	-53	31
-36	0	-56	-82	31
-81	285	-54	-49	31
-210	563	-45	-45	31
-305	524	0	-4	31
-153	-112	19	19	31
45	-537	-6	-47	31
251	-87	16	-15	31
5	207	1	141	31
-208	-50	3	103	31
-183	232	44	35	31
-172	578	72	59	31
-67	-249	40	-1	31
-88	-693	-92	-126	31
-39	-340	-92	-201	31
9	-360	-2	-127	31
-43	-77	19	-70	31
108	59	43	-14	31
-180	160	-11	28	31
-179	589	-36	-19	31
451	7	11	62	31
409	-404	9	100	31
-185	186	8	60	31
-352	247	-1	47	31
-16	468	7	63	31
306	862	34	156	31
393	272	20	102	31
81	-345	2	-63	31
-246	-396	6	-73	31
-252	-25	6	6	31
-177	-3	6	-65	31
2	563	-15	-101	31
-23	1021	-44	-31	31
-161	-820	-41	16	31
171	-1420	-19	94	31
241	-603	-34	84	31
93	-651	-19	-12	31
-19	-270	32	-102	31
-64	207	101	-103	31
-24	637	149	-3	31
-270	902	59	19	31
-219	794	21	47	31
242	413	52	3	31
616	-50	-10	-104	31
203	-583	-122	-12	31
-102	-1147	-125	-44	31
49	-436	-70	-38	31
-15	-100	-109	47	31
-21	-467	-84	-22	31
-89	-107	-12	-7	31
-70	43	-10	11	31
-342	88	24	41	31
-682	-78	26	33	31
-393	-149	26	23	31
333	598	68	47	31
830	1202	59	28	31
226	239	17	-1	31
-318	-158	0	2	31
-216	597	-33	80	31
-4	-325	-79	82	31
296	-841	-31	77	31
266	-447	16	100	31
353	-146	30	112	31
105	323	36	107	31
-148	-36	45	-14	31
-8	-130	24	-183	31
-210	149	-56	-185	31
-237	597	-67	-55	31
-34	760	-25	2	31
160	6	46	-22	31
157	-260	59	-170	31
-93	-653	6	-151	31
-65	-768	-23	-41	31
-87	-7	-26	-92	31
-181	-60	7	-13	31
-178	258	34	70	31
-459	1143	4	79	31
-359	874	-41	80	31
151	-402	-26	115	31
568	-632	0	145	31
429	60	-2	50	31
26	-224	36	-64	31
67	-49	85	-91	31
-56	238	44	-66	31
-61	-179	10	-31	31
-84	-328	-1	19	31
-101	-120	-59	-8	31
49	74	-45	-59	31
21	-77	-26	-55	31
10	232	-27	-6	31
-157	-238	8	24	31
-205	-224	26	70	31
-244	684	39	132	31
-46	-182	19	55	31
275	-441	22	75	31
143	80	50	145	31
-83	117	82	12	31
-21	3	166	-48	31
-34	88	204	-130	31
-205	734	63	-239	31
8	-155	-64	-36	31
171	-803	-100	67	31
181	-143	-226	-65	31
98	-138	-250	-12	31
-221	540	-257	-6	31
-443	417	-212	-60	31
-216	-559	-62	41	31
180	-376	25	120	31
544	-203	81	87	31
381	-40	27	-78	31
-296	535	9	-155	31
-54	568	28	-59	31
254	-290	39	-4	31
271	-135	74	41	31
233	159	52	84	31
-71	-88	22	31	31
-66	542	34	21	31
-103	17	41	84	31
-54	-224	-15	142	31
-24	571	-55	66	31
-49	176	24	-41	31
6	-494	104	-42	31
-163	-766	124	-72	31
-473	-423	107	-12	31
-633	-236	-7	85	31
-456	197	-102	84	31
156	535	-141	73	31
716	-104	-112	74	31
726	90	-36	35	31
338	441	-39	-66	31
1	94	-25	-171	31
-1	316	18	-231	31
-51	1641	31	-21	31
-155	1067	47	128	31
-417	-1086	49	32	31
-694	-1479	63	-77	31
-474	-1592	90	-153	31
80	-543	84	-37	31
794	273	133	19	31
641	-595	128	65	31
226	-110	-31	37	31
395	82	-129	-15	31
-7	-130	-109	-8	31
-376	148	-59	-22	31
-236	45	-67	38	31
-112	156	-58	-29	31
56	259	35	30	31
308	268	42	155	31
245	237	17	85	31
-62	198	-49	-28	31
-347	441	-89	-42	31
-750	992	-35	-44	31
-467	251	-44	-65	31
198	-932	-19	1	31
314	-41	-5	-39	31
125	10	-14	-43	31
-33	-81	22	5	31
5	624	23	-19	31
17	214	24	-17	31
166	-214	33	35	31
291	-670	79	124	31
231	-283	138	61	31
-26	-14	130	3	31
-319	103	67	-13	31
-139	302	-22	4	31
-138	462	-114	95	31
-122	927	-153	-36	31
91	-549	-112	-124	31
163	-444	-21	-36	31
77	735	21	9	31
-178	-551	-15	2	31
-295	-766	-37	31	31
-33	-448	-57	60	31
277	-514	-12	16	31
158	-26	55	-56	31
27	366	47	-97	31
-212	434	6	-46	31
-321	-302	-26	22	31
-4	-249	22	87	31
233	396	31	103	31
178	477	15	105	31
-48	-212	49	107	31
-337	-718	60	31	31
-506	325	54	-52	31
-39	129	12	-151	31
636	-95	-2	-185	31
777	244	-15	-130	31
-120	-444	-62	-90	31
-221	273	-32	-42	31
191	358	-3	-6	31
-115	-275	-6	23	31
-8	-23	36	88	31
-189	-252	93	89	31
-110	80	96	9	31
-191	231	32	-41	31
-54	-56	-16	39	31
241	201	-77	65	31
85	-50	-179	16	31
582	-269	-199	7	31
26	71	-79	-3	31
-282	128	7	-7	31
110	26	-31	-29	31
-150	-1	12	-6	31
-69	140	64	35	31
-144	687	41	24	31
-74	818	12	-36	31
20	418	-19	-6	31
-32	786	19	14	31
-155	685	26	-32	31
-376	-693	25	-5	31
-428	-677	42	-3	31
-168	-1001	6	-11	31
471	-1272	9	12	31
600	-77	26	47	31
113	-580	26	31	31
-303	-314	14	19	31
12	211	24	22	31
431	-90	49	-14	31
366	474	24	-21	31
105	219	5	9	31
-2	-268	2	11	31
-70	-440	1	11	31
-123	-19	-15	42	31
-92	216	-71	1	31
-191	-243	-52	-18	31
38	-264	-41	3	31
117	120	-44	62	31
-141	750	-7	156	31
-458	706	-7	50	31
-290	-103	-1	-94	31
188	-520	17	-64	31
133	-247	36	-85	31
128	-174	17	-199	31
20	100	18	-128	31
-9	525	10	12	31
150	135	-22	15	31
174	-107	-16	12	31
50	110	-15	51	31
-93	186	-6	98	31
-267	196	-16	114	31
-573	146	-36	69	31
-582	1048	-4	62	31
-185	1734	34	67	31
360	41	-12	-62	31
418	-1400	-31	-156	31
450	-1548	29	-112	31
385	-738	66	12	31
141	-102	45	5	31
65	-335	-16	-77	31
27	36	-36	-81	31
-52	-184	-52	-74	31
-36	-141	19	63	31
31	92	69	81	31
-93	200	25	28	31
-8	340	-9	53	31
-79	-139	-49	57	31
-241	75	-14	17	31
-300	487	39	-39	31
-321	1246	21	-73	31
-274	1387	-36	-112	31
-113	-565	-45	9	31
425	-1554	-26	50	31
314	-343	-34	59	31
-126	-275	-14	88	31
42	-586	42	42	31
-49	-11	77	38	31
-128	-133	77	-15	31
92	184	66	8	31
117	391	24	48	31
122	-29	-67	33	31
-123	-160	-113	27	31
-199	119	-59	-24	31
290	427	-19	-141	31
550	345	-8	-89	31
266	106	-16	37	31
-103	-241	-23	28	31
-131	-32	-7	49	31
-75	-6	4	75	31
-151	-318	1	69	31
61	285	59	9	31
113	313	156	-85	31
-150	-241	137	-120	31
67	-283	80	-55	31
102	-227	37	67	31
-65	-37	-44	78	31
-120	-93	-158	33	31
-112	-1	-213	27	31
19	198	-119	-92	31
-1	67	-67	-157	31
98	-25	-59	-19	31
-218	458	46	130	31
-458	1319	53	77	31
-259	905	-6	-46	31
-11	-791	-40	-34	31
200	-1110	-17	-90	31
183	-189	41	-47	31
135	-425	42	15	31
-159	-466	61	50	31
52	-28	37	148	31
393	-112	12	85	31
175	-279	25	-14	31
-150	-413	39	-101	31
-180	181	47	-48	31
-29	799	-2	-4	31
31	709	-31	-6	31
87	-50	-31	4	31
18	-437	15	-83	31
55	-231	3	-108	31
97	-216	-30	-69	31
143	116	21	9	31
-16	574	24	62	31
-96	707	10	95	31
-77	-216	1	77	31
-80	-808	12	11	31
-8	-404	17	-65	31
-212	-260	-20	-47	31
-225	21	-12	31	31
-228	176	0	46	31
-112	418	-10	108	31
-51	993	0	64	31
-16	540	-16	-77	31
151	-745	-62	-120	31
-31	-484	-31	-46	31
256	318	-1	8	31
314	-335	-45	-7	31
72	-657	-25	-57	31
320	-378	12	-8	31
343	29	26	116	31
-118	702	39	47	31
-601	225	22	33	31
-252	-87	27	148	31
-2	423	34	156	31
-133	264	2	69	31
-6	379	-10	-84	31
79	406	-27	-80	31
371	311	-42	-22	31
241	-363	9	-47	31
-148	-1256	12	-42	31
-36	-246	22	-65	31
-132	153	41	-16	31
-289	-163	32	21	31
-44	-106	16	-28	31
301	-275	-31	20	31
289	353	-17	16	31
-180	388	-7	-58	31
-80	-90	2	-85	31
282	-294	6	-50	31
123	-616	-3	6	31
-183	-37	-2	-30	31
-390	570	0	-26	31
-171	409	6	25	31
137	-314	-3	-6	31
281	-327	17	-29	31
214	437	7	29	31
153	-173	-6	37	31
102	-476	-35	-1	31
-27	-83	-62	69	31
-32	437	-11	156	31
-135	1437	48	95	31
-97	461	42	79	31
-62	-1100	6	73	31
-157	-705	-14	-21	31
-194	-494	-58	-115	31
-118	-339	-54	-153	31
49	387	-4	-90	31
0	485	6	-87	31
-74	118	-1	25	31
-105	-141	11	47	31
-99	-67	-2	-21	31
-165	-129	-21	21	31
-231	657	-9	0	31
22	1469	3	37	31
308	388	39	86	31
290	-767	37	80	31
145	-492	24	-32	31
343	-404	21	-190	31
285	-323	-19	-180	31
-1	-196	-36	-17	31
-77	-171	-17	23	31
-178	775	-8	52	31
-53	272	-30	94	31
36	-899	-38	32	31
3	-648	-16	41	31
-213	-175	10	47	31
-413	-113	12	11	31
-314	-117	31	40	31
-247	88	47	72	31
175	6	4	6	31
537	3	-51	-37	31
161	218	-22	-35	31
115	39	39	-37	31
-37	178	46	-26	31
-236	358	8	29	31
95	274	-26	76	31
-196	970	-10	-94	31
-218	1292	6	-213	31
-112	92	10	-113	31
-257	-1206	5	52	31
211	-1090	44	118	31
264	-566	62	27	31
163	295	17	27	31
-47	846	-83	-26	31
-130	-479	-160	-89	31
206	-543	-63	-6	31
-112	349	7	46	31
-330	528	8	86	31
-20	679	34	115	31
402	-214	11	109	31
655	-635	-1	95	31
560	7	-12	73	31
95	168	3	143	31
-224	-297	16	140	31
-549	161	-17	-19	31
-576	680	46	-112	31
-95	-805	29	-212	31
151	-1080	-41	-203	31
375	-162	-29	-103	31
46	-195	-27	-108	31
-69	37	22	-124	31
412	-122	27	-122	31
233	-65	-17	12	31
50	248	-3	92	31
-24	214	1	31	31
-159	57	52	60	31
-233	-74	64	44	31
-285	360	25	89	31
-149	693	47	115	31
37	1693	25	50	31
170	930	-24	56	31
-191	-1534	-71	17	31
-336	-1019	-33	-7	31
-130	-212	-40	-48	31
103	-109	-61	-138	31
107	336	31	-178	31
17	-581	47	-128	31
348	-407	47	3	31
169	84	50	66	31
121	-155	44	53	31
54	368	7	22	31
-337	39	-64	-14	31
-208	-88	-25	3	31
48	291	1	-19	31
25	84	-75	-10	31
-139	511	-80	76	31
-76	811	3	75	31
74	-261	60	69	31
-77	-335	43	94	31
-301	176	-19	103	31
-185	-562	-41	129	31
-203	-229	-32	111	31
40	680	15	21	31
335	735	52	-110	31
112	-208	45	-111	31
-135	-1120	-12	-77	31
-152	-522	-81	-102	31
317	-103	-50	-70	31
107	-310	-14	-54	31
-301	-297	47	28	31
-46	-206	65	126	31
-20	-60	20	84	31
177	906	53	32	31
-43	1534	-27	-7	31
6	351	-80	-63	31
377	-632	34	68	31
122	-565	93	97	31
75	-387	50	-97	31
-222	-125	-27	-152	31
-118	-188	-57	-188	31
17	-320	7	-93	31
-92	-93	37	35	31
186	282	-2	-42	31
298	487	11	-76	31
372	57	-12	-29	31
195	181	-73	37	31
194	860	-52	135	31
73	1106	12	209	31
-297	444	29	232	31
-221	-1186	22	224	31
-96	-1043	1	109	31
-53	-3	-42	-151	31
-125	-524	-49	-289	31
-47	-299	-37	-221	31
-87	6	-54	-225	31
-149	-477	-19	-104	31
-99	-318	16	13	31
-347	-31	-34	-12	31
-118	598	-7	16	31
219	1087	35	22	31
261	222	29	135	31
310	-579	42	223	31
-15	63	78	189	31
-335	-30	80	48	31
-263	-595	11	-24	31
-74	377	-68	-12	31
140	523	-112	-50	31
16	-14	-11	-109	31
-83	422	60	-95	31
287	409	43	49	31
168	-141	31	68	31
-128	-546	-25	28	31
-66	-559	-45	-41	31
79	-112	-54	-100	31
1	357	-25	-117	31
-88	114	2	-57	31
72	-299	37	59	31
12	219	85	29	31
-50	50	21	51	31
-353	-657	-81	84	31
-456	-408	-110	64	31
158	-367	-31	12	31
375	-2	37	-63	31
43	571	79	-40	31
-10	472	109	39	31
-7	204	95	91	31
196	37	57	69	31
265	728	7	15	31
-20	409	-10	-114	31
51	-852	-23	-137	31
-123	-497	-55	6	31
-279	-191	-60	-27	31
-145	-233	-34	-107	31
27	25	-54	-48	31
127	-55	-80	24	31
127	256	-37	137	31
178	476	9	164	31
70	105	-7	74	31
69	-234	-14	-69	31
-11	-102	7	-134	31
-49	258	23	-23	31
70	876	29	8	31
17	938	9	17	31
14	-16	36	96	31
-189	-133	79	123	31
-247	-597	67	138	31
-31	-593	21	142	31
50	329	-31	56	31
53	-804	-38	-170	31
-171	-618	-78	-223	31
-46	-92	-94	-70	31
49	-613	-26	-16	31
56	219	-27	26	31
369	108	15	24	31
185	288	30	54	31
26	69	2	-8	31
-41	-305	29	-205	31
-108	446	9	-180	31
-65	-58	-17	-53	31
-82	19	-50	9	31
-72	423	-37	110	31
-90	139	-27	108	31
4	200	16	-41	31
-31	274	73	-84	31
1	-169	90	-39	31
-9	-509	111	123	31
-186	-108	54	232	31
-201	189	-16	165	31
-107	262	-103	-79	31
125	-168	-115	-209	31
150	-368	-27	-109	31
-10	-216	-14	-104	31
-276	325	-6	58	31
-370	1099	-29	157	31
17	-365	-75	50	31
314	-954	12	-96	31
224	-24	122	-189	31
189	-390	165	-11	31
117	24	95	124	31
-178	229	-21	88	31
-33	249	-11	101	31
234	454	27	55	31
312	-62	57	21	31
213	135	123	-42	31
-59	-163	107	-119	31
-228	249	53	32	31
-275	829	19	-32	31
-14	-504	-72	-163	31
129	-608	-185	-45	31
17	-439	-248	42	31
-206	-420	-215	67	31
-440	632	-123	-29	31
-322	684	-23	-7	31
-198	280	39	58	31
105	-99	72	39	31
544	-631	81	14	31
423	-472	82	11	31
305	-62	91	112	31
174	-342	34	81	31
-75	-61	-62	37	31
-302	177	-130	1	31
-381	-143	-117	1	31
57	394	-90	23	31
424	574	-41	-5	31
308	467	-22	-19	31
-1	-12	-27	-83	31
-65	-37	51	-108	31
16	269	71	-67	31
-65	-434	112	36	31
-50	-618	171	80	31
-45	-431	133	120	31
-67	-52	47	102	31
-78	229	-47	-7	31
-118	134	-89	-122	31
-55	533	-126	-158	31
-68	938	-117	15	31
-143	148	-16	81	31
-269	-610	4	46	31
-120	-202	34	45	31
164	-500	59	-28	31
247	-557	-2	-82	31
148	-112	-2	-92	31
-84	79	42	-150	31
-116	1132	69	-122	31
-206	859	21	-62	31
-203	412	-1	-53	31
-289	1137	22	89	31
-627	146	-24	200	31
-578	-1209	-64	204	31
-254	-1705	-27	148	31
489	-1431	28	73	31
794	-429	8	-50	31
681	-79	-17	-186	31
891	38	35	-177	31
206	119	49	-47	31
92	160	14	122	31
244	-17	45	160	31
-123	-63	108	54	31
75	165	112	73	31
-50	112	71	137	31
-39	421	9	-70	31
-89	707	-84	-234	31
-193	754	-188	-105	31
-110	362	-194	-52	31
-112	231	-28	-33	31
-127	393	-55	-29	31
-168	-672	-82	-69	31
66	-1099	83	-32	31
114	-376	72	-54	31
62	-217	59	67	31
-126	281	22	108	31
-329	306	-52	17	31
-236	-269	-70	18	31
-37	142	-33	25	31
134	228	-6	97	31
-57	446	-37	20	31
-80	1146	13	-138	31
-8	755	28	-151	31
34	-788	4	-65	31
100	-738	9	-4	31
39	370	-1	32	31
65	-538	-34	54	31
16	-877	-28	53	31
-112	-291	41	95	31
-206	-492	50	162	31
-55	-325	27	84	31
129	-74	35	-4	31
218	-136	42	54	31
109	86	34	17	31
-218	130	12	-20	31
-256	127	0	-67	31
-10	487	-4	-29	31
166	1051	2	69	31
36	485	36	79	31
-90	-952	36	98	31
-4	-367	-22	90	31
128	75	-70	-8	31
166	-55	-81	-249	31
24	428	-37	-185	31
40	82	-19	25	31
88	275	19	-26	31
-41	55	16	-46	31
-106	-384	-24	-11	31
-247	-163	-22	22	31
-415	-288	-32	75	31
-432	199	41	77	31
-129	411	93	-12	31
539	290	95	-102	31
630	126	62	-80	31
242	-395	59	-91	31
125	-136	-14	-125	31
-109	-10	-118	14	31
-319	-181	-98	77	31
-444	352	-74	-23	31
-376	1119	-14	-37	31
197	306	-44	-4	31
483	-628	-19	27	31
22	632	69	-13	31
-449	68	40	-38	31
-204	-1138	37	-18	31
421	-24	68	3	31
934	-231	46	68	31
457	-519	-19	86	31
-199	-122	-7	79	31
-80	-74	-11	36	31
-52	579	-23	-10	31
117	652	-18	18	31
21	189	-58	37	31
-91	-714	-56	45	31
44	-633	7	74	31
11	-156	36	66	31
37	-472	37	34	31
-62	117	45	-15	31
-228	-40	-9	-73	31
-353	574	-1	-29	31
-259	1513	22	22	31
-115	-183	-57	21	31
32	-1191	-91	3	31
191	-379	-45	-101	31
75	77	-1	-105	31
-95	402	8	-16	31
-179	578	14	-35	31
-56	58	7	-9	31
8	119	7	35	31
-127	186	1	59	31
69	-499	-36	80	31
237	-550	-1	52	31
102	179	49	28	31
-84	480	33	-26	31
-271	-235	57	-68	31
-182	-606	94	-16	31
42	-270	67	-13	31
53	-333	-31	-35	31
203	-132	-55	-10	31
283	-326	-51	-41	31
-122	-210	-93	2	31
-682	572	-78	21	31
-797	526	-44	51	31
-138	803	49	133	31
527	261	110	107	31
725	-748	62	-12	31
192	20	4	-114	31
-174	1099	36	-188	31
-62	1287	11	-225	31
-3	168	-117	-85	31
341	-942	-135	1	31
132	-913	-93	69	31
-74	-905	-50	50	31
150	-96	17	-7	31
160	241	93	37	31
225	5	85	62	31
227	74	20	100	31
53	-284	-15	40	31
-38	-104	-31	22	31
-163	-258	-45	-16	31
-395	-150	-56	-25	31
-467	356	-32	-16	31
-421	672	4	3	31
-224	424	19	74	31
-57	-459	27	99	31
23	-85	49	128	31
315	836	42	114	31
292	1252	1	138	31
235	47	-10	69	31
334	-1339	-1	-22	31
-61	-659	11	-22	31
-189	-571	36	-117	31
-27	-508	39	-149	31
222	67	32	-199	31
423	-206	31	-303	31
52	-9	45	-169	31
-146	135	22	-8	31
-180	240	-19	55	31
-70	133	-60	72	31
75	-184	-84	70	31
-132	319	-53	55	31
-295	449	-20	1	31
-335	588	52	77	31
60	520	102	51	31
491	-163	53	-39	31
313	-45	-2	87	31
65	-105	-1	160	31
-150	-249	-16	-16	31
-287	-173	-12	-233	31
-135	-294	-6	-224	31
-205	303	-54	-82	31
-257	899	-55	59	31
-176	290	-21	65	31
-32	-952	50	57	31
180	-552	82	88	31
91	-22	82	-7	31
20	-312	54	-40	31
-86	162	-45	42	31
-166	333	-92	50	31
-179	752	-125	-47	31
111	479	-69	-31	31
375	-946	49	21	31
-47	-1023	12	44	31
117	-414	28	89	31
216	-310	71	42	31
-17	95	-11	-9	31
362	338	-93	-59	31
194	379	-144	-46	31
-22	224	-62	34	31
3	-254	28	65	31
-175	-28	31	60	31
-216	7	33	14	31
-254	14	-11	1	31
-89	633	1	23	31
138	699	61	46	31
-16	180	122	115	31
-117	-610	73	100	31
-11	-495	-38	-8	31
-202	53	-107	-103	31
-115	-183	-100	-77	31
230	195	2	17	31
307	429	-19	11	31
148	-48	-39	-11	31
22	-200	4	-36	31
170	130	59	-50	31
150	565	72	-123	31
-16	636	46	-85	31
-218	217	43	-52	31
-415	-544	-34	-112	31
-410	-658	-100	-73	31
12	-440	-39	-52	31
350	-501	41	75	31
58	-487	-7	142	31
-133	-107	-40	87	31
-70	149	-47	82	31
110	-136	-22	8	31
170	-48	42	-239	31
188	1	82	-214	31
107	-9	95	72	31
-110	346	95	12	31
97	263	92	-52	31
29	146	54	44	31
-274	566	65	120	31
-246	998	60	185	31
-244	256	67	182	31
-215	-825	-21	121	31
-55	-318	-122	43	31
238	29	-112	-4	31
48	-404	-92	-93	31
-270	-230	6	-143	31
17	79	-21	-70	31
224	598	-33	16	31
468	532	-22	2	31
186	-362	-91	-12	31
-34	-70	-59	7	31
51	490	-41	4	31
-229	-42	8	44	31
-223	-465	26	71	31
-242	-762	28	18	31
72	-224	41	-47	31
438	316	7	-19	31
264	-12	-21	17	31
-77	-206	-77	6	31
-259	-418	-51	66	31
13	122	4	173	31
252	151	75	178	31
32	39	122	-83	31
-8	398	100	-363	31
-83	504	54	-358	31
-175	254	-8	-179	31
36	-142	-11	-21	31
-55	871	-77	49	31
14	426	-74	52	31
141	-1021	-32	69	31
69	-831	-12	96	31
-207	-458	23	84	31
-388	-44	-35	75	31
-98	-87	-67	50	31
79	35	-65	-39	31
289	144	17	-39	31
174	-99	39	84	31
23	222	-6	110	31
133	282	-20	34	31
-148	39	-62	15	31
-316	-292	-39	50	31
-164	-143	-34	27	31
-87	693	7	-12	31
-125	934	42	-32	31
-16	-226	40	-61	31
225	-1061	74	58	31
489	-590	84	125	31
188	-248	102	-127	31
-83	47	102	-211	31
25	222	76	-39	31
59	229	26	-10	31
120	47	-61	17	31
-118	-321	-123	23	31
-82	-54	-72	12	31
-37	177	-64	22	31
28	183	-70	12	31
136	313	-35	-22	31
-125	213	-21	-137	31
-259	112	-12	-138	31
-304	22	-31	-2	31
9	-72	42	50	31
252	217	84	32	31
123	358	64	19	31
-44	102	44	22	31
-195	125	4	-7	31
-55	-209	37	-64	31
16	-621	83	19	31
17	-79	79	89	31
42	534	1	79	31
-226	1140	-90	72	31
-333	186	-130	74	31
38	-599	-54	123	31
291	485	44	76	31
201	19	18	-63	31
-4	-401	-54	-160	31
-4	-951	-31	-117	31
143	-1351	32	33	31
67	-523	-22	73	31
-29	-508	-27	40	31
-151	-117	-14	10	31
-128	55	-29	-58	31
113	241	-2	-44	31
128	465	-22	-36	31
-294	178	-16	-24	31
-528	202	2	-4	31
-338	93	-16	12	31
-140	248	-19	26	31
325	193	14	-37	31
540	378	72	39	31
415	851	115	102	31
326	303	101	52	31
26	-537	38	73	31
-184	-652	-31	64	31
-156	-170	-29	39	31
6	227	-31	-21	31
29	242	-84	-108	31
41	-106	-28	-117	31
214	-426	36	-37	31
113	78	11	112	31
-190	313	-30	193	31
-218	-494	-65	120	31
-216	-520	-64	-24	31
-102	437	-39	-238	31
295	1585	34	-339	31
253	468	88	-122	31
31	-1504	-1	27	31
-42	-67	-61	21	31
93	-75	-10	-29	31
50	-838	4	-8	31
-281	176	28	127	31
-161	-257	44	137	31
-133	166	17	-41	31
-114	215	-7	-174	31
-16	12	-21	-25	31
-14	871	30	41	31
-214	653	56	11	31
-242	-535	83	73	31
291	-1029	80	105	31
421	228	71	122	31
378	446	44	65	31
57	161	-37	15	31
-72	-251	-92	-44	31
6	-720	-136	-82	31
-141	27	-67	-90	31
29	-36	-62	-107	31
-50	75	-52	-104	31
-47	456	2	-124	31
-131	547	-12	-9	31
-253	414	23	116	31
-195	15	-13	97	31
-338	230	-1	91	31
-66	-367	23	49	31
275	-949	21	44	31
330	-315	11	77	31
337	-159	-39	99	31
201	-36	-33	77	31
44	228	-19	-4	31
-2	145	-2	-62	31
-188	391	-2	-69	31
-164	-17	-8	-27	31
-121	-483	-36	-22	31
4	-70	11	-55	31
176	169	73	-86	31
-126	444	95	-77	31
-16	512	103	8	31
82	34	33	162	31
-10	-68	29	145	31
-20	-221	-1	-70	31
-244	-244	-47	-54	31
-286	494	-44	-15	31
-331	722	7	-55	31
-112	-142	24	7	31
141	-360	-22	-18	31
46	-103	-6	-4	31
-26	-716	-44	-2	31
108	-411	-24	-65	31
247	-241	7	-143	31
282	-336	-54	-72	31
241	198	-23	52	31
-39	49	-27	27	31
295	285	-87	15	31
309	589	-14	60	31
-74	578	16	83	31
81	239	14	-36	31
-107	143	22	35	31
-42	-86	-43	32	31
-60	-750	7	-107	31
-214	-189	82	64	31
-77	591	57	307	31
-4	1485	43	375	31
-50	947	26	234	31
-94	-1052	41	70	31
54	-1471	103	-263	31
-110	-1001	107	-456	31
-34	-525	76	-304	31
-13	-356	-39	-241	31
-34	136	-168	-109	31
122	942	-150	11	31
-160	575	-103	32	31
-208	-540	-59	23	31
-78	-660	-11	5	31
58	-149	1	45	31
83	454	5	41	31
129	801	-2	35	31
148	-355	-26	15	31
-146	-502	-19	46	31
-342	249	8	71	31
-502	130	-1	29	31
-133	-217	37	54	31
342	-433	58	57	31
244	96	59	41	31
87	-126	67	29	31
69	55	25	32	31
424	203	16	62	31
258	-173	6	32	31
-172	296	-5	4	31
-72	100	1	-24	31
-173	235	-2	-39	31
43	169	-28	15	31
216	-18	-27	41	31
186	60	-21	22	31
140	-137	-50	-16	31
-84	85	-27	-24	31
-158	164	6	-43	31
-177	504	17	-51	31
13	533	24	22	31
-124	101	14	15	31
59	-183	-23	-26	31
-16	-366	-41	-65	31
-448	67	-20	-65	31
-95	604	2	14	31
261	862	16	31	31
492	-303	1	15	31
72	-1153	0	14	31
-127	-138	41	79	31
130	-298	67	110	31
32	-60	45	10	31
46	33	20	-107	31
-59	-748	-6	-112	31
-75	-359	-56	24	31
-34	-366	-81	77	31
-44	-47	-27	0	31
7	194	24	-45	31
-2	150	10	-49	31
-28	322	6	-62	31
-40	114	-28	-24	31
-205	317	-36	-9	31
-256	620	2	-82	31
-110	361	12	-138	31
-116	-150	8	-70	31
116	-123	-24	37	31
190	-304	-43	45	31
-9	-444	-22	102	31
66	-75	-12	105	31
37	271	-14	37	31
-40	1016	26	-4	31
-115	698	69	-26	31
-189	-901	26	-74	31
-130	-1054	3	-77	31
19	-128	39	122	31
375	-313	-14	161	31
411	-174	-12	98	31
160	57	38	34	31
-165	-184	41	-41	31
-398	81	14	-33	31
-244	-70	-49	-49	31
-38	107	-29	4	31
266	436	-12	6	31
-11	809	2	16	31
-240	913	11	37	31
-85	622	-13	2	31
-317	779	22	-36	31
-55	-655	53	-88	31
134	-1635	25	-81	31
280	-836	9	-47	31
585	-389	-9	-13	31
180	-174	-54	-7	31
-153	-254	-69	7	31
30	196	-54	11	31
239	7	-24	-24	31
75	-214	-17	-33	31
-87	208	-4	1	31
-180	-45	37	84	31
-183	183	47	154	31
-47	135	19	158	31
34	331	19	133	31
294	558	42	63	31
13	169	26	16	31
-237	355	15	-6	31
-42	-173	-36	-112	31
-240	-624	-109	-236	31
-297	-197	-100	-237	31
-195	-16	14	-38	31
158	312	35	17	31
388	80	-23	-20	31
291	-205	18	-2	31
55	242	49	-17	31
-173	-55	48	7	31
115	-226	8	-41	31
5	128	14	-41	31
17	174	1	1	31
-106	433	-22	72	31
-620	437	-9	75	31
-554	57	-27	21	31
-196	-156	-7	52	31
595	-360	-3	82	31
791	-326	26	147	31
125	-80	-14	88	31
-93	315	-19	-20	31
-56	312	15	19	31
117	-518	-11	-24	31
89	-203	30	-71	31
-164	639	8	-84	31
41	325	-16	-117	31
108	-354	-8	-37	31
29	-637	-16	-38	31
-3	47	-19	24	31
-87	-107	-5	53	31
-186	-790	14	14	31
-126	6	9	44	31
-49	659	14	21	31
-21	644	-16	15	31
-142	117	-30	-16	31
-282	-212	-34	6	31
52	-17	-57	-37	31
229	-565	-22	-42	31
284	-398	42	59	31
66	149	57	46	31
137	-101	57	77	31
188	-210	53	50	31
-129	-124	77	-18	31
71	48	87	-19	31
-91	-130	14	-67	31
-96	-83	-37	-67	31
-117	209	-41	-29	31
-238	263	-40	13	31
-277	520	-20	137	31
-243	274	-20	160	31
197	-300	-32	52	31
152	321	6	-42	31
-107	796	-2	-82	31
-158	-456	-42	-5	31
5	-765	-13	-88	31
-9	-279	-1	-240	31
92	-105	11	-145	31
309	502	29	-16	31
114	489	1	6	31
-231	426	-24	44	31
-330	-231	-34	29	31
57	-613	-16	-31	31
264	3	46	42	31
525	178	82	144	31
207	383	2	80	31
-519	113	-52	14	31
-496	68	-49	47	31
-464	169	-80	-17	31
206	254	-10	-80	31
695	327	27	-56	31
237	-685	-23	16	31
-17	-274	-24	39	31
-16	18	-35	62	31
234	-952	-16	-6	31
170	-275	28	-144	31
102	-124	60	-52	31
-62	-213	67	11	31
-380	158	25	7	31
-315	-47	-26	-10	31
136	216	-67	-24	31
729	221	-25	89	31
204	103	45	90	31
-218	212	76	2	31
-333	188	42	-14	31
-476	341	-47	-29	31
72	-65	-48	6	31
241	-692	0	41	31
-19	-198	7	34	31
-170	-184	3	23	31
6	-148	-21	-19	31
44	224	-32	-74	31
8	-135	-45	-64	31
-9	189	4	-10	31
-137	166	81	55	31
-184	79	96	138	31
-219	52	78	164	31
-55	-211	-19	135	31
72	18	-110	52	31
-32	74	-149	-50	31
-169	522	-82	-149	31
-210	717	-2	-171	31
-110	523	16	-89	31
355	565	52	-94	31
527	-239	-1	-44	31
327	-929	-6	-12	31
196	-245	24	-32	31
85	-92	10	23	31
-31	-380	1	-11	31
-232	-278	-9	19	31
-223	-216	11	59	31
-87	-88	-11	98	31
89	-176	-7	156	31
-165	126	22	32	31
-460	338	18	-127	31
-372	386	6	-75	31
-343	637	16	-22	31
-41	528	86	-26	31
70	-572	117	0	31
-24	-870	11	-112	31
30	692	-95	-82	31
514	485	-69	80	31
942	-441	-11	97	31
467	-295	19	86	31
123	-110	14	93	31
28	54	-9	3	31
-115	-402	-4	-97	31
-110	-326	-19	-73	31
-178	-25	-32	-41	31
-156	-250	-25	-10	31
-117	-223	-13	28	31
-54	-84	25	32	31
168	226	53	48	31
-1	257	38	11	31
-146	57	4	-73	31
41	342	-24	-34	31
-61	1049	-12	41	31
1	1125	24	52	31
-35	-466	1	143	31
-363	-1242	-59	168	31
-352	-428	-71	33	31
-157	-143	-48	-46	31
176	157	-26	-49	31
233	136	-1	-122	31
-19	-96	-4	-85	31
40	32	-21	-12	31
171	891	-22	-60	31
-49	1165	12	-52	31
-222	-1012	37	-9	31
-86	-1244	70	69	31
156	-254	84	120	31
309	-733	1	61	31
-132	12	-24	-80	31
-171	124	17	6	31
181	-85	35	105	31
133	274	49	-76	31
128	-54	22	-51	31
130	159	8	-107	31
191	187	-7	-152	31
87	209	-6	-9	31
21	344	26	55	31
-138	471	29	138	31
-327	499	21	46	31
-267	-422	-34	-91	31
-127	-434	-12	-72	31
65	166	10	60	31
-72	215	-43	74	31
-224	192	-30	49	31
-343	104	-6	30	31
-139	302	-22	11	31
149	-311	-21	29	31
62	-217	31	-75	31
436	423	31	-12	31
529	-590	-34	55	31
193	-524	-74	44	31
99	-258	-87	-3	31
-37	-302	-69	-60	31
69	143	-31	-60	31
201	-20	21	-62	31
-115	552	36	14	31
-444	595	9	-36	31
-449	-353	-41	-17	31
-294	-533	-27	-39	31
-10	-58	54	-44	31
140	35	31	105	31
64	-105	26	59	31
-58	114	11	87	31
-3	54	-25	49	31
200	125	14	0	31
113	199	26	108	31
199	408	16	169	31
241	629	1	168	31
-328	-83	11	-26	31
-781	-126	74	-236	31
-616	419	62	-259	31
0	43	-27	-140	31
412	-700	-16	-22	31
330	-780	-33	27	31
370	-184	-74	-21	31
679	106	-5	-132	31
405	-11	35	-122	31
-72	-366	31	-51	31
-221	-107	-20	-8	31
-289	194	-39	69	31
-223	-3	12	60	31
-64	251	27	52	31
213	419	7	108	31
111	1426	8	103	31
-46	1198	-19	55	31
-128	-1261	-66	26	31
-193	-1472	-23	-31	31
-214	-593	-9	-98	31
-153	-310	-26	-80	31
257	207	19	-32	31
158	266	23	1	31
-178	89	4	-11	31
-148	-294	7	65	31
-66	-179	10	183	31
272	-39	34	181	31
539	-60	41	156	31
110	176	16	77	31
25	183	12	-17	31
58	639	4	-77	31
-219	603	-82	-62	31
-257	-107	-76	-11	31
-375	193	-6	-73	31
-112	122	-45	-92	31
108	-561	-26	-3	31
-11	-162	-12	50	31
47	-365	18	19	31
117	-311	72	2	31
6	57	16	-93	31
-169	-127	-7	-56	31
-20	456	29	74	31
44	32	60	57	31
-82	1	48	16	31
-181	613	19	-68	31
150	-274	11	-19	31
355	-793	-1	-43	31
127	-163	-3	-151	31
233	236	-27	-67	31
-77	339	-44	11	31
-170	356	-36	16	31
-128	62	-18	20	31
-101	-264	19	15	31
41	-146	21	-17	31
-199	367	35	-84	31
-189	-14	-16	-82	31
-231	-215	-57	41	31
-77	60	-15	46	31
49	-96	-30	-6	31
194	37	-5	49	31
263	158	43	55	31
-158	973	24	-47	31
-57	340	24	-99	31
-83	-1504	10	-4	31
32	-880	-15	73	31
486	-186	-45	88	31
461	-112	-72	85	31
296	283	-46	108	31
7	125	-26	140	31
-216	163	31	69	31
-266	126	55	-52	31
-169	-67	44	-62	31
-66	-19	29	38	31
-321	114	-26	-67	31
-565	506	-63	-101	31
-272	320	-62	50	31
4	-388	7	2	31
151	26	12	-27	31
436	436	8	-15	31
-86	-52	14	4	31
-315	180	22	-102	31
199	465	62	-133	31
272	370	54	2	31
376	-174	53	-34	31
199	-972	-7	-36	31
218	-496	-46	-21	31
226	-143	-26	18	31
-130	-34	23	63	31
-84	493	25	40	31
-236	482	-84	23	31
-262	417	-83	73	31
-99	-289	11	79	31
-41	-446	-6	22	31
14	332	-27	6	31
91	-411	-21	-85	31
18	-591	-33	-75	31
-56	110	17	21	31
103	3	29	-5	31
55	-115	26	-73	31
50	-279	23	-48	31
-133	-24	9	11	31
-158	42	2	41	31
-72	-158	-19	54	31
-44	80	4	79	31
162	107	22	89	31
162	85	66	80	31
246	714	124	67	31
-28	1022	98	19	31
-37	-160	12	7	31
85	-456	-54	-16	31
-72	140	-37	-28	31
137	-287	-25	8	31
47	-548	-48	69	31
-102	-499	-39	23	31
-233	-275	-11	-117	31
-107	23	24	-87	31
6	-110	31	11	31
-243	-31	31	24	31
-67	198	27	-17	31
-193	637	-61	7	31
-508	1220	-146	20	31
-421	265	-95	-87	31
-4	-770	15	-87	31
607	-197	64	11	31
549	-37	32	39	31
168	357	-36	-6	31
340	404	-59	-47	31
211	222	-20	-43	31
-204	436	18	-29	31
-90	-1180	-31	-23	31
-131	-1061	-21	-93	31
26	-203	35	-2	31
142	-467	16	75	31
-38	156	34	-90	31
-67	113	17	-75	31
-398	554	22	22	31
-366	484	26	82	31
-293	-204	9	101	31
-201	288	24	74	31
80	174	14	-10	31
460	-528	18	-93	31
616	-471	-10	-41	31
117	-226	12	19	31
266	-79	56	-9	31
107	93	11	36	31
49	-18	-73	153	31
102	117	-69	134	31
-283	119	-31	67	31
65	363	-26	36	31
23	606	6	123	31
56	61	-28	151	31
-72	111	-20	14	31
-315	181	-3	-107	31
30	-86	18	-235	31
-23	273	65	-274	31
-33	30	49	-162	31
-84	-375	22	-44	31
-155	-318	-14	84	31
-11	-443	-52	54	31
-117	72	-64	-123	31
-7	43	-20	-83	31
175	-217	11	32	31
95	-29	33	26	31
-211	59	24	19	31
-204	1062	18	59	31
92	1681	57	161	31
12	-65	36	189	31
137	-1752	-4	130	31
76	-736	14	9	31
-15	-408	3	-107	31
-49	-543	-10	-75	31
-137	118	-15	-118	31
89	77	-34	-170	31
-153	437	15	-84	31
-228	49	-24	-105	31
109	-44	-113	-27	31
193	511	-81	127	31
226	-239	1	90	31
176	-533	55	54	31
92	-54	45	37	31
50	-9	33	49	31
-150	232	13	113	31
-344	755	-32	147	31
-284	662	-32	82	31
-100	328	-23	-2	31
152	519	-7	-24	31
354	-178	17	-95	31
109	-1377	48	-72	31
-121	-711	69	57	31
-196	-315	39	79	31
-160	-312	4	65	31
135	260	9	-1	31
102	27	4	-85	31
-18	-97	-11	-98	31
-116	-4	2	-90	31
57	263	-18	-37	31
129	205	-50	-80	31
-80	78	-24	-92	31
-151	365	18	-4	31
-484	290	21	20	31
-258	828	22	54	31
186	511	40	66	31
453	-366	-5	60	31
424	-90	-49	75	31
-8	-826	-95	34	31
147	-520	-86	27	31
26	-138	-47	63	31
78	-640	-2	23	31
318	295	64	-67	31
42	-44	47	-156	31
-59	-34	16	-168	31
-261	165	-12	-49	31
-265	-29	-6	12	31
-151	312	1	-46	31
64	-51	-21	18	31
63	66	-4	109	31
-195	-117	7	101	31
-2	96	-18	110	31
65	532	-26	125	31
-18	159	-5	81	31
-18	-28	27	-66	31
103	469	32	-182	31
209	1294	33	-141	31
-1	64	19	-58	31
-20	-1062	-19	-2	31
94	-603	-5	-23	31
163	-710	16	-49	31
179	-307	44	-41	31
29	50	66	8	31
-100	209	42	54	31
-168	310	3	44	31
-321	-364	-40	29	31
-252	-242	-64	-23	31
-107	227	-50	33	31
72	199	-11	84	31
248	-193	7	40	31
-106	-353	29	1	31
-146	-17	21	-57	31
80	295	-19	-31	31
11	819	-55	41	31
-152	548	-33	89	31
-271	-280	-2	36	31
-153	-561	-29	-22	31
-38	-639	-24	-7	31
-115	-429	-9	-44	31
171	-24	18	-79	31
475	330	31	-66	31
182	419	31	7	31
284	-110	35	67	31
100	-169	39	118	31
-22	105	64	127	31
92	146	54	40	31
-140	386	28	65	31
57	-4	-18	85	31
-37	-13	-82	54	31
-129	212	-74	17	31
-208	85	-21	-104	31
-312	55	-15	-117	31
-407	-594	-11	-14	31
-442	-275	-23	-9	31
-29	490	-20	-128	31
246	300	32	-143	31
300	131	36	-69	31
138	-273	37	21	31
120	-137	60	44	31
156	533	32	42	31
252	-162	-14	42	31
309	-574	-34	-14	31
-60	-143	-65	13	31
-154	-368	-65	-42	31
39	-88	1	-93	31
122	140	12	-49	31
130	93	-2	-19	31
103	298	-9	69	31
-9	436	-9	102	31
-128	39	4	31	31
-132	-374	18	-12	31
-201	164	9	-57	31
-209	-178	-27	-59	31
-165	-122	-11	35	31
-209	746	31	87	31
-93	1206	52	39	31
115	932	21	-38	31
252	-1233	9	-13	31
160	-1576	6	16	31
90	-511	-32	49	31
122	-378	-7	79	31
-13	265	-27	54	31
167	12	-65	47	31
152	-260	-55	-41	31
-143	79	-24	-163	31
-153	-128	-26	-175	31
-223	-32	-23	7	31
-34	233	-10	94	31
54	76	-14	64	31
146	29	34	143	31
264	11	18	72	31
-138	-120	39	-81	31
-79	70	68	-165	31
-128	251	37	-131	31
-385	181	41	-18	31
-304	54	2	-48	31
-229	358	-6	-49	31
39	525	-8	37	31
266	-173	-4	55	31
348	-415	-6	11	31
231	128	-26	7	31
250	210	6	14	31
-84	-102	16	4	31
-140	-194	47	60	31
-75	-100	26	84	31
-348	34	-29	37	31
39	-59	-16	-4	31
50	-135	18	54	31
-211	-93	-7	41	31
-494	2	-42	-47	31
-88	763	7	-8	31
434	1076	-19	75	31
413	-69	-56	61	31
622	-198	-23	-11	31
114	574	6	-26	31
-55	-31	7	-67	31
152	-571	-10	-81	31
-118	-682	4	-54	31
-2	-841	-12	-14	31
-122	-385	-20	-4	31
-410	-165	1	21	31
-549	356	4	59	31
-339	807	9	0	31
190	-49	24	-18	31
347	-302	51	4	31
295	52	55	21	31
83	-483	4	7	31
262	-403	-39	-17	31
204	429	-37	-75	31
-194	343	-24	-98	31
-116	-245	-8	-45	31
-239	-329	-3	-52	31
-315	-105	1	-6	31
-365	-427	-3	67	31
-196	-38	14	84	31
183	312	41	45	31
317	-42	-2	69	31
349	199	-24	62	31
241	-3	-21	14	31
68	-213	-48	22	31
-42	-159	-31	-54	31
-9	92	-14	-46	31
154	252	-4	-14	31
142	192	-13	-21	31
-40	501	4	10	31
64	548	57	59	31
-185	206	10	75	31
-271	-505	-31	58	31
24	-552	-13	92	31
-47	-164	24	77	31
37	-36	57	2	31
-17	153	62	-115	31
36	-132	42	-126	31
64	29	-5	-62	31
-180	133	13	3	31
-185	-1	44	85	31
-237	173	1	3	31
-187	384	-15	-42	31
-15	1291	-20	25	31
-100	1201	-51	29	31
-62	-201	-52	4	31
300	-917	-39	-21	31
162	-616	-29	-94	31
-13	97	-10	-107	31
233	-282	8	-103	31
175	-881	44	-73	31
-79	-562	64	13	31
-223	-545	47	1	31
-185	-30	20	-11	31
-26	307	-4	-67	31
-170	197	4	-27	31
-213	158	-26	68	31
45	36	-57	58	31
301	201	-31	24	31
695	224	7	4	31
216	612	11	45	31
-115	294	-19	4	31
-1	111	-1	58	31
-27	131	6	146	31
116	-130	-24	72	31
1	418	-66	-26	31
138	-335	-74	-54	31
-163	-1044	-23	2	31
-189	-447	16	15	31
50	-317	30	-45	31
-30	-260	10	-50	31
-22	-123	-17	-16	31
-65	-105	11	-26	31
100	117	63	3	31
78	162	81	16	31
60	257	60	2	31
-137	517	21	29	31
-429	435	-28	37	31
-614	35	-52	43	31
-621	-69	-44	15	31
59	459	-33	-24	31
495	-76	-52	-41	31
1	-337	-24	-9	31
140	-23	25	30	31
165	-756	26	-42	31
-89	-191	55	-31	31
395	94	22	50	31
264	-8	12	35	31
323	90	27	-34	31
215	59	6	-37	31
-17	874	28	26	31
79	88	22	46	31
-192	34	72	85	31
-135	398	13	143	31
-272	-404	-67	92	31
-219	-222	-34	-143	31
105	-239	-83	-244	31
43	-57	-67	-81	31
-297	-276	-60	-49	31
-363	-124	17	-36	31
108	254	125	107	31
348	-446	36	90	31
250	-144	-29	16	31
0	158	-85	-37	31
-177	18	-41	-106	31
-200	352	44	-37	31
17	851	-7	-42	31
195	49	-64	-40	31
-67	-666	-65	53	31
-323	67	1	60	31
-227	201	-1	59	31
55	514	-18	75	31
324	235	12	79	31
532	-153	40	27	31
265	-330	43	-11	31
-219	-758	22	-66	31
-448	164	41	-46	31
-460	271	5	2	31
32	-52	26	44	31
323	-46	42	100	31
-84	27	-9	63	31
-48	63	-22	103	31
-42	-285	-30	132	31
157	201	13	14	31
431	41	-16	-77	31
-32	-769	-19	-52	31
212	-330	-19	-143	31
118	151	-39	-244	31
68	138	-17	-264	31
-67	717	-3	-190	31
-463	420	61	53	31
-284	-236	29	113	31
-396	-100	-19	108	31
19	-320	-22	57	31
120	-460	11	-31	31
604	60	55	12	31
607	639	36	2	31
-356	419	-28	-15	31
39	-115	-57	-29	31
-17	-300	-9	-12	31
-150	155	-8	3	31
-181	366	-21	-5	31
-330	-406	-18	12	31
81	-930	3	40	31
194	-468	53	122	31
59	14	51	140	31
-365	115	26	57	31
-191	419	41	-36	31
264	152	30	-21	31
398	-88	-14	42	31
173	70	-24	80	31
-216	322	-24	35	31
-90	624	-44	-82	31
-102	106	-50	-90	31
68	-345	9	-111	31
23	154	31	-9	31
-17	786	13	117	31
224	102	-11	116	31
-51	-831	-1	23	31
-231	12	34	-50	31
-409	887	29	-16	31
-68	51	22	-120	31
209	-725	29	-52	31
107	-115	50	98	31
151	-176	18	81	31
-63	-639	-12	9	31
138	-254	-17	-79	31
-8	-447	-103	-82	31
-148	-499	-163	-26	31
-118	24	-113	5	31
-270	44	-32	14	31
-74	454	21	102	31
-204	869	-2	191	31
-212	468	-36	74	31
-84	294	2	-140	31
414	34	41	-86	31
246	-616	24	11	31
-213	-628	26	72	31
142	-22	39	94	31
309	12	14	-98	31
594	-65	11	-200	31
252	5	-1	-222	31
17	-37	0	-112	31
73	186	14	51	31
-167	184	16	104	31
-289	535	4	70	31
-405	793	18	35	31
-133	195	32	115	31
110	-312	22	129	31
178	-738	6	72	31
161	-596	-19	-2	31
140	-56	12	-16	31
121	-241	-22	-52	31
-184	-54	-49	-165	31
-568	276	-19	-163	31
-290	366	-3	-40	31
407	596	34	43	31
232	929	24	13	31
-324	1202	-2	-9	31
-189	-705	-14	19	31
17	-1457	-4	107	31
148	-476	24	132	31
234	-828	33	52	31
143	-48	37	-77	31
181	-38	2	-122	31
80	-214	-7	-13	31
96	175	21	16	31
119	-189	15	14	31
-21	144	8	34	31
-195	141	-21	42	31
-248	669	-59	54	31
-31	915	-40	54	31
16	-10	-3	37	31
-87	-425	-29	-21	31
-131	-375	-65	-62	31
-20	-88	-47	-25	31
-34	375	-19	59	31
-46	6	-28	59	31
-23	-685	-21	-8	31
-171	-281	5	-55	31
-91	-20	11	-95	31
-26	177	44	-97	31
72	278	55	-13	31
64	278	53	39	31
-109	452	45	6	31
-135	39	11	-59	31
-375	258	29	-62	31
-183	-88	37	60	31
439	-674	36	118	31
399	103	34	82	31
244	47	-1	9	31
101	-173	-25	-5	31
-248	351	-26	87	31
-411	667	-41	37	31
-431	360	-57	-60	31
-354	-552	-39	-92	31
9	-545	-49	-87	31
514	-322	-27	-84	31
590	-516	65	-125	31
241	-311	76	-39	31
-183	54	49	13	31
89	329	17	6	31
224	118	-17	27	31
16	36	-39	-5	31
172	293	-45	-4	31
118	831	-2	14	31
-93	896	-41	40	31
-196	-377	-96	59	31
276	-208	-45	46	31
146	453	-19	31	31
-442	-384	-23	-22	31
-370	-473	-5	-36	31
-46	-940	16	-1	31
327	-741	28	21	31
358	50	29	24	31
289	-288	41	31	31
124	106	52	39	31
-98	142	40	36	31
-219	120	39	84	31
-189	161	32	98	31
-283	55	-11	52	31
-331	305	-50	-7	31
-97	345	-34	-20	31
-35	558	-23	-17	31
82	111	-42	-82	31
-14	-440	-30	-117	31
46	-107	-19	-25	31
130	14	3	82	31
-53	-281	53	54	31
-15	108	51	23	31
0	306	44	38	31
147	-221	26	14	31
41	-171	-21	-85	31
-70	-79	-41	-81	31
21	-39	-36	47	31
75	265	3	20	31
135	92	23	18	31
-127	-260	14	-6	31
-60	-260	14	-229	31
-57	-97	6	-223	31
-216	175	7	-27	31
39	262	4	49	31
-69	86	-9	118	31
-358	345	-15	108	31
-368	551	-22	65	31
-197	454	-29	89	31
290	-77	-11	80	31
532	-877	31	100	31
28	-276	64	124	31
170	-17	27	16	31
449	-364	-50	-178	31
181	158	-12	-191	31
302	343	60	-163	31
-120	196	31	-231	31
-390	-352	-27	-133	31
-304	-408	-41	62	31
-290	-163	-39	58	31
-46	-114	3	-17	31
-325	485	42	20	31
-115	414	4	41	31
545	-20	-6	112	31
544	-165	-3	118	31
145	-295	-37	85	31
-67	-122	-22	63	31
-1	66	-16	8	31
81	173	-26	13	31
169	216	6	-64	31
107	-42	11	-46	31
4	-32	29	106	31
-127	202	45	149	31
-57	192	32	115	31
-68	34	15	80	31
-153	-244	-31	53	31
-255	298	-45	-102	31
-383	1237	-30	-179	31
-127	1019	6	-40	31
129	-770	31	-16	31
274	-1856	-61	-54	31
94	-945	-125	-98	31
-6	-540	-71	-125	31
-127	-292	11	-14	31
-199	188	72	13	31
-71	315	70	47	31
-623	312	11	6	31
-546	-90	-26	-94	31
82	80	-5	37	31
485	60	28	39	31
605	-148	21	62	31
167	89	32	97	31
252	39	44	47	31
206	238	2	-6	31
40	193	-14	-113	31
108	28	24	-36	31
-106	95	86	3	31
-127	-69	73	-27	31
-20	-7	-3	-22	31
199	74	-70	-57	31
290	173	-106	-18	31
-77	216	-125	77	31
-295	305	-92	80	31
-181	400	-29	17	31
-646	-172	-37	-15	31
-1142	-544	29	49	31
-699	-239	74	55	31
-11	349	55	34	31
784	545	58	62	31
1139	-588	-4	-23	31
514	-565	-36	-6	31
237	51	-20	25	31
217	-461	-3	-47	31
-127	611	14	-63	31
32	834	34	-39	31
189	106	24	75	31
165	-20	2	122	31
128	-286	-37	16	31
-175	-155	-54	-144	31
-277	-214	12	-199	31
-577	93	30	-101	31
-790	-542	-16	-25	31
-55	-742	-9	37	31
610	528	32	77	31
178	1097	34	31	31
-434	545	6	-11	31
-171	-455	6	28	31
757	-371	22	28	31
735	-571	27	32	31
175	-563	15	24	31
140	-42	-14	-21	31
-215	-54	-20	7	31
-340	284	-15	12	31
-383	417	-11	28	31
-248	551	-21	0	31
16	-162	-24	1	31
-226	-670	34	58	31
-311	-307	48	8	31
33	-256	23	-47	31
420	188	7	7	31
302	64	-16	38	31
31	223	26	23	31
-93	628	1	32	31
-15	213	-28	-37	31
25	-224	-16	-64	31
21	-246	-29	-22	31
13	-28	-10	-32	31
-123	-107	-42	-33	31
-136	133	-45	-5	31
-233	269	-18	21	31
-247	139	-19	-11	31
-174	-87	-22	-95	31
125	-141	17	-43	31
452	472	82	61	31
94	951	52	59	31
-259	438	17	37	31
-154	-998	-10	47	31
-42	-732	-6	57	31
185	-120	27	41	31
135	-583	-14	-53	31
-139	-1	-34	-103	31
86	458	-39	-34	31
33	457	-28	-8	31
-209	-333	-2	14	31
208	-481	1	50	31
279	378	9	50	31
26	504	6	72	31
165	268	-6	72	31
38	-652	8	46	31
2	-637	50	35	31
-82	-211	29	18	31
-107	-38	-32	-76	31
81	659	-55	-155	31
-171	1005	-12	-147	31
-266	607	41	4	31
-482	-209	53	105	31
-481	-393	44	24	31
17	-390	34	-24	31
239	-135	18	-148	31
228	-143	-34	-147	31
236	-293	-66	-12	31
268	466	-38	47	31
345	237	-29	77	31
383	-902	-57	17	31
112	-821	-12	6	31
10	-182	-8	27	31
-87	149	-19	72	31
-80	295	7	44	31
-90	210	10	-34	31
-122	501	19	-31	31
146	22	-21	-1	31
17	-290	-3	54	31
-169	189	17	-24	31
-102	-355	7	-36	31
-101	-40	17	11	31
-186	195	-5	-11	31
-214	-39	-24	11	31
-218	289	-20	24	31
15	-16	10	59	31
188	-31	17	119	31
-36	-61	15	123	31
-179	-44	-21	67	31
-93	102	-20	-25	31
21	141	54	-175	31
7	205	65	-137	31
84	646	25	2	31
91	1399	-16	-76	31
73	173	-24	-82	31
129	-833	-15	-2	31
-27	-297	-1	64	31
223	-794	-2	123	31
228	-244	-28	82	31
-39	240	-18	6	31
-55	-710	-2	-24	31
-467	-146	-1	-41	31
-550	-1	-7	-90	31
-408	-346	-3	-99	31
-180	-353	17	-17	31
503	-160	27	62	31
1006	343	10	41	31
635	88	-3	19	31
91	383	-4	19	31
-40	707	-14	-26	31
-269	497	-1	-14	31
-107	-320	31	24	31
-176	-177	27	-2	31
-93	1121	9	-17	31
138	535	19	-21	31
-89	-566	43	-2	31
-30	-806	42	9	31
-70	-738	10	15	31
-74	-480	-12	20	31
-328	167	-36	-24	31
-465	321	-52	18	31
-34	-102	-64	-16	31
491	-133	-34	-76	31
636	-98	-24	2	31
-34	212	-43	33	31
-408	356	-7	75	31
-297	-17	-8	97	31
127	-339	35	66	31
497	-80	55	34	31
134	262	17	-57	31
18	275	9	-29	31
-18	484	7	62	31
-199	699	-17	39	31
-122	666	-17	-6	31
6	117	15	-48	31
-4	-469	9	-98	31
63	-899	35	-26	31
143	-962	-17	31	31
166	-352	-32	-8	31
62	49	-38	-2	31
-266	317	-63	-52	31
-79	-16	2	-22	31
11	-36	5	-34	31
-42	169	17	-47	31
-209	-218	12	74	31
-715	23	-7	66	31
-587	-86	-21	74	31
60	215	-5	38	31
921	715	26	-129	31
698	85	23	-177	31
-108	-444	62	-14	31
-55	-289	59	64	31
-379	89	29	-22	31
-368	-324	1	-28	31
213	-544	-41	38	31
589	5	-44	92	31
313	361	-44	25	31
-155	111	-52	-60	31
62	-343	1	-42	31
-57	-191	37	56	31
27	-33	29	110	31
-52	-122	44	98	31
-280	-29	-12	77	31
-175	52	-35	26	31
-153	120	36	-15	31
37	150	41	-79	31
-89	120	1	-120	31
-276	95	-52	-70	31
-408	124	-60	-37	31
14	373	-40	-9	31
519	668	-27	40	31
120	803	10	83	31
-201	682	-24	98	31
-13	232	-36	36	31
158	-513	-19	64	31
-198	-1194	-14	44	31
-521	-454	17	-93	31
-222	424	2	-130	31
545	231	19	-34	31
849	630	29	59	31
466	604	31	36	31
545	-415	45	31	31
252	-1151	8	-12	31
-471	-280	24	-23	31
-623	119	27	-23	31
-388	-899	-14	-6	31
277	-281	-10	40	31
541	-109	-2	-77	31
224	-282	-14	-94	31
137	246	2	-65	31
-73	106	12	-93	31
-254	533	10	16	31
-140	340	-22	43	31
-186	-1	-20	9	31
-186	281	22	24	31
-153	-370	-23	-75	31
-170	-537	-16	-60	31
-150	163	23	66	31
-255	331	-36	74	31
-418	21	-50	-29	31
-42	-249	-4	-168	31
547	-95	-5	0	31
251	103	0	175	31
47	-33	-18	107	31
107	140	-20	102	31
26	199	41	99	31
45	-95	29	-45	31
-175	95	4	-282	31
59	303	24	-201	31
80	-94	25	-12	31
-218	-322	3	42	31
48	-91	14	145	31
210	310	26	161	31
94	828	-2	145	31
-228	387	8	71	31
-247	-243	-2	-29	31
-99	-104	5	-80	31
37	-513	34	-54	31
217	-596	-14	25	31
-54	-214	-36	65	31
-151	-46	-44	41	31
-322	545	-7	-32	31
-877	800	21	-48	31
-1061	90	-34	-84	31
-283	-550	-6	-96	31
932	-234	19	-44	31
1358	113	27	15	31
770	-210	17	41	31
199	-350	-28	42	31
173	-111	-6	75	31
137	-187	-16	112	31
151	88	-43	97	31
175	147	-32	17	31
77	205	-5	-75	31
-92	270	12	-130	31
-135	-194	-9	-60	31
-154	508	-13	8	31
-314	381	-16	-7	31
-251	-379	-15	37	31
-62	-626	7	108	31
-206	-591	34	43	31
-461	129	38	-71	31
-127	414	9	-9	31
315	368	26	113	31
256	-259	24	194	31
27	-308	23	178	31
27	56	32	-123	31
145	257	-3	-421	31
269	-27	9	-284	31
129	-339	-10	-12	31
-75	191	-39	95	31
14	-120	-65	160	31
-117	30	-93	44	31
-123	44	-72	-135	31
-94	-79	-29	-229	31
1	268	60	-111	31
144	122	77	65	31
-4	348	34	-32	31
-234	383	21	37	31
-358	350	20	149	31
-92	-110	41	53	31
-50	-539	35	-15	31
-17	-286	-17	-19	31
105	11	-20	39	31
-102	-79	12	77	31
-117	-166	-4	31	31
20	323	-1	-44	31
14	184	7	2	31
-69	-133	-47	74	31
43	-388	-59	135	31
385	-305	-5	143	31
299	229	13	54	31
14	249	-17	-67	31
4	-138	7	-156	31
-79	-394	37	-40	31
-248	31	14	9	31
-327	108	19	-11	31
-166	-50	2	18	31
40	8	-7	22	31
234	242	15	28	31
82	303	-1	-11	31
62	-67	2	-26	31
176	-90	-17	-49	31
-118	54	-34	-42	31
-22	264	-10	-50	31
-163	219	-4	-41	31
-257	162	4	19	31
-333	-351	-6	49	31
-390	-431	-32	74	31
153	166	-13	30	31
372	-159	12	-61	31
341	118	29	-97	31
-42	382	27	10	31
368	361	-18	65	31
616	177	-24	92	31
-113	-692	-6	118	31
107	-488	-17	89	31
-233	57	-20	-5	31
-6	-17	-30	-225	31
369	44	16	-167	31
-33	537	75	30	31
41	604	49	99	31
-284	41	27	120	31
11	-830	-4	115	31
-54	-670	-44	41	31
-65	590	-38	-72	31
239	-351	6	-120	31
24	-786	12	-262	31
-78	-80	-2	-182	31
-266	-236	8	105	31
-29	165	-2	161	31
-159	126	3	75	31
24	216	42	-42	31
338	239	64	-34	31
29	219	40	14	31
-42	325	-4	-6	31
-155	54	-53	31	31
-72	57	-59	17	31
-54	-199	-25	-20	31
-96	-153	-14	-19	31
-113	48	-10	-7	31
-174	-18	-31	33	31
-121	-17	-15	47	31
151	-29	-29	19	31
368	75	-52	-12	31
-33	2	-9	-28	31
-49	-5	-5	-27	31
56	80	21	-3	31
17	174	37	29	31
151	404	47	-63	31
-37	233	52	-120	31
-148	183	-2	73	31
-292	301	-12	174	31
-156	-225	18	83	31
-95	-401	44	51	31
-374	-275	57	-29	31
-343	-366	1	-6	31
-77	-104	-68	127	31
481	103	-40	62	31
386	474	-19	-138	31
-53	732	-24	-309	31
168	-53	-14	-211	31
61	-706	-29	-31	31
-143	-523	-16	70	31
47	-330	17	95	31
205	335	17	32	31
138	842	-2	92	31
-315	-34	-16	142	31
-459	-766	-12	158	31
-40	-297	-21	118	31
349	-31	-55	37	31
241	-92	-49	-67	31
92	-1	-15	-242	31
47	146	7	-212	31
122	582	22	2	31
228	480	45	110	31
218	66	57	65	31
137	-739	16	19	31
-300	-893	14	92	31
-360	-121	-16	106	31
-170	-185	-26	-36	31
53	-8	77	-116	31
90	60	89	-82	31
97	-11	32	-119	31
42	71	15	-214	31
-279	-69	17	-115	31
-77	222	2	30	31
-24	330	14	26	31
201	465	16	42	31
156	642	-58	84	31
-172	273	-89	57	31
131	-251	-66	39	31
-244	38	-50	3	31
-342	295	-3	2	31
-59	-338	31	82	31
75	-472	5	122	31
529	-241	3	47	31
429	-9	-25	-142	31
78	32	-38	-86	31
-323	-74	-7	21	31
-314	40	12	54	31
-146	-24	20	167	31
-389	146	4	98	31
-80	345	25	44	31
185	368	18	117	31
81	394	12	95	31
153	652	16	-28	31
-34	74	-1	-310	31
-214	-1244	-11	-467	31
-2	-492	2	-113	31
206	-177	29	62	31
123	-399	-2	110	31
88	279	-21	277	31
239	237	-14	223	31
-135	369	-6	198	31
-433	-430	14	80	31
-266	-45	37	-26	31
150	760	6	-92	31
586	-356	-17	-55	31
486	-485	44	81	31
168	-347	-7	77	31
-53	-166	-105	-37	31
-160	156	-106	-73	31
-247	256	-105	103	31
-167	502	-147	49	31
-59	408	-70	-234	31
-50	370	72	-476	31
-113	542	130	-207	31
-224	-337	129	32	31
-112	-1307	74	-91	31
163	-418	12	35	31
403	-420	44	72	31
241	-358	50	92	31
-105	487	-34	-127	31
-48	207	45	-238	31
-286	192	92	-40	31
-401	-265	49	97	31
69	-70	34	235	31
166	65	-30	135	31
144	-180	-19	158	31
178	394	-31	264	31
-59	111	-47	282	31
-476	138	6	119	31
-755	57	54	-82	31
-315	-451	49	-162	31
533	-117	50	-106	31
904	252	176	9	31
565	444	203	-137	31
-50	409	70	-419	31
-49	-4	-22	-480	31
222	-21	-94	-131	31
55	-24	-234	-103	31
-387	74	-382	-114	31
-479	469	-332	277	31
36	499	-196	357	31
1	205	-161	454	31
-309	-755	-189	547	31
-312	-632	-163	226	31
-570	-129	-27	-295	31
-225	-146	175	-582	31
446	-90	401	-432	31
356	-406	414	-31	31
530	6	252	84	31
285	62	125	-67	31
-423	206	51	52	31
-41	206	1	61	31
243	229	-47	259	31
420	867	3	235	31
257	248	17	50	31
-16	-345	-128	8	31
62	-699	-230	-173	31
-342	-386	-122	-68	31
-267	-114	79	-38	31
180	-367	196	-2	31
259	-12	203	7	31
-62	-288	144	70	31
-127	-56	-22	180	31
-46	-16	-304	116	31
-145	-269	-456	151	31
-173	-77	-358	314	31
-322	82	-126	368	31
-166	881	-27	282	31
132	398	-74	183	31
486	-176	-35	-254	31
242	117	110	-610	31
-191	-106	325	-408	31
-199	285	432	-195	31
-431	135	449	-280	31
-380	-275	356	-123	31
168	276	147	279	31
700	378	-41	171	31
218	270	-255	-106	31
-6	246	-322	-109	31
-32	434	-340	-355	31
-199	792	-232	-544	31
37	-148	-171	52	31
-46	-1302	-232	487	31
-20	-607	-64	410	31
-471	-277	-40	367	31
-669	-549	-16	158	31
-544	-141	80	-118	31
-303	212	250	-552	31
30	472	429	-363	31
-299	-314	274	196	31
569	-413	165	84	31
1612	-140	131	162	31
990	-211	-72	219	31
398	562	-250	9	31
209	470	-303	-84	31
-54	637	-188	-137	31
-3	796	47	63	31
16	-143	161	75	31
-164	-394	349	-84	31
-537	-555	478	-34	31
-889	-744	297	36	31
-529	-310	-87	7	31
352	-31	-411	-40	31
934	174	-477	-47	31
184	-242	-340	-109	31
-123	-303	-97	56	31
209	146	135	174	31
-69	40	275	117	31
74	412	122	167	31
-171	203	-137	140	31
-213	-211	-358	34	31
-17	200	-394	-266	31
-125	609	-214	-366	31
-173	577	49	-85	31
-332	-418	243	53	31
-192	-690	218	92	31
-30	143	186	113	31
44	651	57	87	31
2	506	-60	101	31
-297	-816	-168	47	31
-787	-752	-284	50	31
-768	715	-226	101	31
-69	1112	-65	13	31
633	227	196	-44	31
388	-1282	254	70	31
170	-617	399	17	31
494	-190	575	-244	31
-175	-232	237	-178	31
-241	379	-90	45	31
-14	39	-304	-6	31
362	653	-403	-74	31
900	-39	-179	-71	31
118	-764	37	-108	31
-102	-71	117	-30	31
-228	-5	120	61	31
-459	524	179	2	31
-97	-203	219	-40	31
616	-538	265	-34	31
605	234	60	-2	31
-373	103	-183	42	31
-277	365	-279	-39	31
-75	548	-346	-91	31
122	863	-168	47	31
149	493	-123	134	31
71	-954	-134	120	31
140	-1094	-37	56	31
-173	-278	100	-26	31
-23	-19	145	17	31
0	-128	75	104	31
-133	178	25	80	31
-268	399	-57	-29	31
-37	19	-65	-143	31
273	-419	24	-107	31
-26	-112	95	22	31
-117	296	98	31	31
-142	280	120	47	31
-85	76	89	47	31
105	-418	29	-1	31
-57	-186	-27	-29	31
-253	-184	-123	-25	31
-223	-179	-100	48	31
-77	702	-17	49	31
258	261	-54	30	31
293	-241	-52	-12	31
17	127	17	-39	31
94	47	-12	10	31
50	62	44	31	31
-33	460	227	14	31
-102	1101	318	-17	31
-145	817	381	-65	31
-64	-434	529	-173	31
-345	-1234	337	-150	31
-417	-1038	-49	42	31
-154	-434	-206	133	31
402	-282	-524	75	31
502	-20	-696	-12	31
-91	260	-471	14	31
-300	315	-241	62	31
-358	-259	-100	90	31
-6	-237	-138	72	31
444	720	-121	36	31
132	419	-59	-11	31
-432	414	-49	-112	31
157	312	65	-94	31
847	-451	229	-81	31
357	-277	261	-34	31
131	-19	156	14	31
-87	62	83	0	31
-157	9	-43	22	31
35	-43	-107	5	31
37	140	58	31	31
4	141	309	41	31
-214	178	244	11	31
-333	418	16	-13	31
-443	-145	-114	-49	31
-254	-683	-270	-75	31
27	-369	-255	17	31
170	-367	-69	135	31
231	-29	92	118	31
19	341	90	115	31
51	-125	54	70	31
212	84	70	-29	31
133	323	50	-127	31
9	44	43	-176	31
-322	292	34	-83	31
-567	-364	55	-17	31
-135	-728	88	-14	31
316	108	154	14	31
150	-239	185	19	31
14	-389	80	25	31
135	201	19	17	31
294	388	-54	-28	31
166	565	-190	-38	31
-173	588	-112	-29	31
-17	209	-56	1	31
55	-388	-203	24	31
277	-218	-176	-6	31
135	-158	-69	-32	31
-60	-479	27	-1	31
171	-71	90	42	31
-130	-125	82	16	31
-246	-219	12	-3	31
-374	80	-100	-4	31
-108	31	-62	4	31
66	90	57	20	31
1	34	110	14	31
251	4	85	18	31
15	174	23	14	31
-6	496	-37	48	31
-19	812	-91	94	31
-99	440	-85	91	31
-89	251	5	74	31
-121	725	-6	-14	31
-271	122	-34	-69	31
-537	-970	44	-1	31
-411	-974	122	34	31
-14	-872	140	1	31
648	-457	85	-118	31
669	-336	42	-175	31
-39	-177	-47	-117	31
-70	211	-133	-93	31
145	-26	-101	-12	31
162	201	-69	-8	31
161	48	-59	-16	31
143	72	24	21	31
131	195	133	31	31
-77	249	198	68	31
26	365	163	57	31
-27	-270	69	27	31
-164	-217	-130	-4	31
-147	124	-352	-2	31
-118	150	-290	41	31
80	100	-57	63	31
26	-3	9	50	31
-7	120	-7	64	31
8	97	2	66	31
11	-9	-4	9	31
-111	-70	17	-13	31
-201	9	27	-57	31
-118	183	47	-64	31
-80	163	37	-23	31
132	-50	24	-21	31
151	-113	26	-14	31
-57	-77	21	-32	31
-289	-93	30	0	31
-514	-39	42	59	31
-312	36	50	52	31
368	108	58	68	31
529	103	67	21	31
262	158	73	-54	31
446	72	105	-36	31
226	-71	65	-38	31
-150	-62	-4	-7	31
-479	51	-72	50	31
-574	594	-122	87	31
-310	452	-80	110	31
-350	-504	-51	45	31
110	-487	-53	-40	31
297	-117	-9	-120	31
117	222	19	-105	31
246	1070	-36	-79	31
300	262	-44	-65	31
244	-1190	-7	42	31
-44	-816	25	46	31
56	-444	31	-24	31
95	-220	15	-92	31
67	60	8	-59	31
95	9	1	4	31
-65	163	16	-17	31
-50	-5	5	-2	31
-110	-32	4	4	31
-170	-4	4	32	31
-198	-150	-11	55	31
-41	-125	27	66	31
183	-156	50	32	31
146	35	-5	-67	31
20	254	-34	-41	31
-75	525	-2	43	31
-48	869	-3	39	31
118	147	-17	18	31
38	-513	-7	27	31
-262	-263	7	14	31
-517	-308	14	25	31
-656	83	-11	12	31
-338	136	-32	-50	31
396	-241	3	-8	31
929	-63	53	47	31
444	62	100	-5	31
99	264	100	-21	31
305	93	21	-5	31
-141	-36	-17	-11	31
-233	21	-58	11	31
-113	-27	-87	27	31
125	27	-48	42	31
575	-146	-12	4	31
138	-84	-26	-64	31
-282	119	-108	-47	31
-248	188	-123	-1	31
-132	191	-49	24	31
-10	247	13	24	31
-98	187	17	2	31
-314	-247	12	-11	31
-325	-190	32	17	31
-109	-5	59	76	31
170	-169	64	153	31
310	-85	26	108	31
-261	88	-33	-94	31
-756	-37	-57	-233	31
-201	-165	-18	-187	31
401	222	0	-16	31
401	247	25	60	31
404	-17	11	47	31
464	-16	-5	-24	31
357	-165	14	-110	31
-66	-30	-13	-34	31
-292	-96	12	4	31
-36	-215	17	16	31
-111	48	37	59	31
-47	57	71	41	31
177	-2	50	37	31
37	-122	29	44	31
-260	-10	3	78	31
-479	79	7	55	31
-630	-23	-42	-13	31
-392	131	-90	-39	31
60	125	-37	-2	31
501	11	16	57	31
807	-316	19	37	31
212	-353	-4	32	31
-691	-191	4	23	31
-1523	-206	4	-25	31
-994	89	-44	-82	31
751	228	-42	-115	31
1646	512	19	-27	31
1150	237	31	1	31
207	-123	60	-16	31
380	93	90	14	31
199	-31	41	10	31
-213	188	-6	57	31
52	110	-42	50	31
-185	-69	-66	-11	31
-155	-103	-90	-35	31
-144	-274	-57	-29	31
-255	-189	-39	-8	31
-187	-117	-38	-37	31
-61	157	10	-8	31
145	141	22	-22	31
-140	60	16	-36	31
-171	161	15	-6	31
-14	-42	11	-8	31
43	-74	-4	21	31
36	47	11	13	31
-77	25	18	35	31
49	8	0	54	31
73	-17	9	98	31
57	-18	18	94	31
-141	-58	-4	22	31
-302	-87	-2	-6	31
-100	43	27	-77	31
-97	97	4	-69	31
-286	87	-32	-50	31
-393	41	-50	-45	31
-310	-113	-18	-13	31
135	-158	12	7	31
642	-39	9	50	31
297	-24	26	68	31
-168	-88	12	87	31
-221	7	21	2	31
-198	-31	37	-132	31
32	-238	7	-107	31
-118	-257	-32	17	31
-98	-100	-44	-2	31
50	-43	-3	-73	31
17	9	7	-24	31
594	294	16	56	31
542	507	2	65	31
91	779	-12	24	31
251	768	6	-1	31
4	-65	-9	-64	31
-46	-645	7	-21	31
72	-385	4	14	31
130	-196	-4	2	31
64	-171	8	56	31
-113	-34	17	56	31
-70	-32	13	31	31
-197	-13	-8	-19	31
-48	-42	-14	-12	31
73	-96	-1	-7	31
42	-121	1	-23	31
-71	-149	-6	32	31
-169	9	9	66	31
-403	130	16	42	31
-798	118	-25	-28	31
-717	97	-72	-114	31
-232	170	-28	-71	31
365	117	3	3	31
234	-200	-6	-15	31
-33	-116	14	-3	31
348	-17	19	-2	31
593	-110	36	48	31
808	243	21	110	31
352	416	15	124	31
-249	113	28	146	31
-201	-496	4	36	31
-155	-499	4	-97	31
327	-11	-25	-103	31
396	63	-9	-102	31
-87	214	17	-84	31
-148	160	0	-24	31
-82	92	11	-64	31
-277	82	-27	-44	31
-199	-45	-34	27	31
-66	-75	-17	-12	31
-24	-143	-29	-15	31
12	-160	-34	18	31
-22	-115	-22	102	31
158	11	12	85	31
29	95	32	-11	31
-41	126	32	-52	31
-17	93	24	-84	31
-61	124	9	18	31
67	105	-29	62	31
-27	-16	-31	60	31
-115	9	32	79	31
-9	-131	44	-5	31
-68	-232	8	-29	31
-161	-77	14	7	31
113	41	41	21	31
-138	7	31	-34	31
-859	-80	-36	-75	31
-373	-121	-66	-50	31
286	21	-34	-2	31
520	214	-31	-24	31
354	85	-4	-85	31
-383	128	-12	-47	31
-108	85	-26	-12	31
26	-171	4	17	31
62	-132	-4	26	31
-85	-165	25	18	31
-142	9	53	34	31
421	170	48	47	31
-197	212	38	50	31
-125	143	32	37	31
224	-231	-21	9	31
169	-55	-82	-18	31
389	118	-47	22	31
280	62	23	86	31
520	180	61	130	31
358	24	53	164	31
23	66	65	119	31
82	171	-7	-54	31
-28	-14	-163	-196	31
-105	-82	-157	-173	31
-136	-105	-55	-106	31
-151	-98	-22	-49	31
-237	-84	-9	-26	31
-329	-166	8	-46	31
-390	-209	22	-54	31
-502	-121	6	-24	31
-361	80	22	53	31
-50	69	36	108	31
-252	-148	-12	37	31
-380	26	21	-80	31
427	250	31	-103	31
554	41	-27	-37	31
422	-166	-6	27	31
462	-181	36	60	31
-137	-93	32	19	31
-69	100	74	-66	31
40	300	95	-7	31
72	191	49	29	31
193	67	60	9	31
115	67	57	37	31
121	2	4	42	31
22	74	-84	60	31
-54	136	-129	95	31
-292	231	-67	131	31
-319	39	-38	87	31
-92	-333	-42	21	31
85	-221	-41	6	31
33	-59	-16	-27	31
97	-18	-3	-38	31
150	-17	1	-79	31
34	-163	52	-119	31
6	-110	65	-127	31
-132	-24	11	-99	31
-101	-42	-62	-27	31
-160	-57	-52	10	31
-103	-220	163	55	31
-61	-245	390	117	31
-204	9	408	178	31
-350	231	253	129	31
-485	212	-59	-7	31
-282	125	-349	-120	31
420	31	-601	-178	31
625	11	-617	-84	31
243	186	-228	-40	31
340	95	-44	-69	31
-97	20	-41	6	31
-42	21	50	13	31
234	-82	58	-7	31
128	-25	77	12	31
273	-13	72	23	31
4	64	74	47	31
-133	47	85	26	31
-208	-22	84	23	31
-79	71	99	49	31
-71	95	52	42	31
-99	-50	19	29	31
132	-203	24	36	31
198	-156	16	27	31
78	-96	20	15	31
-36	-34	95	0	31
-54	39	112	-26	31
-241	142	41	9	31
-170	123	54	-12	31
-44	-114	114	-38	31
12	-178	127	-4	31
108	-41	182	10	31
55	26	373	21	31
-54	-17	476	19	31
-226	-22	292	36	31
-237	-83	49	92	31
-211	-72	-270	61	31
-158	95	-595	-52	31
-142	146	-823	-80	31
-88	153	-898	-160	31
145	98	-484	-163	31
275	130	-70	-7	31
320	209	-28	49	31
-5	-14	26	102	31
-4	-163	97	46	31
189	-52	126	-70	31
-28	-103	147	-67	31
84	-326	135	-87	31
112	-120	173	-7	31
333	17	196	115	31
416	-164	212	103	31
-120	-34	279	75	31
-394	12	353	59	31
-158	123	366	14	31
377	169	173	-64	31
101	77	-109	-103	31
-247	302	-267	-36	31
39	316	-476	-4	31
-124	290	-619	19	31
-110	199	-296	49	31
-115	-237	-80	-31	31
-143	-502	-63	-58	31
39	-389	64	-19	31
-41	-79	61	-55	31
5	61	84	-39	31
7	67	94	18	31
2	-74	119	32	31
-70	-97	137	32	31
-194	224	98	16	31
-148	571	75	18	31
-24	425	16	27	31
186	-88	-11	39	31
125	-88	6	30	31
65	-445	36	-28	31
66	-756	2	-17	31
-35	-234	34	33	31
-92	-259	70	19	31
-181	-250	135	31	31
37	-72	233	11	31
201	12	196	-26	31
200	300	152	8	31
183	184	53	4	31
13	212	-118	34	31
-54	312	-310	74	31
-284	173	-301	45	31
-406	-40	-59	2	31
-314	-227	63	-2	31
-127	141	123	-15	31
290	422	116	-82	31
206	280	44	-105	31
123	-32	-7	-46	31
276	-291	-2	11	31
-49	-140	87	11	31
-36	-47	21	-1	31
127	280	-90	-7	31
127	641	-177	34	31
-2	219	-253	-10	31
-170	-353	-194	-44	31
2	-513	-95	23	31
61	-494	6	38	31
103	-378	64	65	31
-21	208	93	47	31
-23	766	107	17	31
7	507	79	20	31
-149	-388	41	22	31
-42	-504	1	-35	31
-45	29	-45	-110	31
-10	-279	-65	-72	31
-18	-258	84	-52	31
-84	61	170	-60	31
-2	8	46	-11	31
-7	149	-25	-14	31
-27	100	-64	-14	31
-55	168	-165	54	31
-95	221	-218	84	31
6	-189	-69	31	31
174	-356	74	-49	31
178	-91	133	-29	31
104	-54	208	21	31
67	-26	165	55	31
14	75	79	72	31
-24	6	-15	-3	31
-38	127	-83	-78	31
-59	171	-185	-48	31
-57	179	-201	14	31
-92	173	-59	-14	31
-84	97	-31	-1	31
14	44	22	39	31
36	-136	25	24	31
-2	-156	28	-3	31
-19	-75	74	-16	31
-21	-14	40	3	31
22	-65	66	-11	31
48	-149	65	7	31
-7	-26	97	34	31
-54	-18	118	51	31
-123	-11	42	42	31
-88	238	30	-14	31
29	284	59	-19	31
34	-167	-70	-32	31
63	-290	-269	-43	31
48	21	-265	-14	31
4	-43	-127	-1	31
-47	52	-73	19	31
-55	222	-9	59	31
51	414	128	47	31
59	355	160	7	31
11	-364	106	-44	31
-75	-418	21	-36	31
-75	-143	-54	7	31
-17	-113	-145	0	31
5	29	-163	9	31
108	47	-15	3	31
102	22	108	-14	31
19	37	127	-16	31
-7	19	79	2	31
-75	1	25	10	31
-155	-1	-8	-1	31
-135	-37	-79	24	31
9	38	-101	37	31
258	212	16	21	31
181	274	75	-1	31
-60	108	37	-31	31
29	-218	30	-2	31
-81	-258	-13	-25	31
-151	14	-16	-83	31
1	171	1	-40	31
70	54	-1	-12	31
-41	-260	22	8	31
-130	-281	44	30	31
-14	-49	66	7	31
-54	67	49	-11	31
3	185	39	1	31
87	-51	16	24	31
80	-186	-33	11	31
103	-9	-64	3	31
85	44	-64	17	31
120	368	-29	35	31
2	259	5	35	31
-504	-122	-6	-1	31
-904	64	-7	-24	31
-471	-166	-6	-46	31
208	-434	-6	-27	31
428	130	9	16	31
837	570	-6	10	31
724	275	-18	11	31
-94	-418	-9	24	31
-10	-424	3	28	31
63	-85	0	31	31
153	-90	37	66	31
317	246	55	41	31
-83	300	20	-52	31
-14	290	-6	-67	31
-78	21	-22	-60	31
-122	-586	14	-45	31
-72	-310	21	-47	31
-130	-264	7	-42	31
9	-351	2	18	31
-42	-7	-43	34	31
-63	117	-79	17	31
-93	241	-52	-7	31
-55	125	9	-20	31
-67	-148	-3	11	31
-87	-9	-4	30	31
-42	102	-4	-4	31
-69	-42	-24	-34	31
-15	93	5	-13	31
-37	170	3	14	31
-33	-1	-6	9	31
-17	-64	5	17	31
21	-40	22	25	31
21	66	15	15	31
-27	51	-4	10	31
-15	39	-1	-1	31
-28	42	4	10	31
1	21	12	22	31
1	49	16	27	31
12	101	45	75	31
17	418	47	52	31
-28	624	-14	-19	31
-53	98	-49	-44	31
-50	-591	-44	-84	31
-21	-503	-27	-110	31
50	-223	34	1	31
100	-98	61	72	31
32	29	38	21	31
-1	-22	26	14	31
-4	38	24	-4	31
-8	2	32	-8	31
7	14	23	-19	31
-5	77	-7	24	31
-2	41	-55	17	31
-13	68	-109	-97	31
-20	24	-160	-59	31
-19	170	-115	-12	31
-5	389	-16	26	31
17	210	12	45	31
-12	-314	-14	-19	31
-34	-389	-11	21	31
29	-127	17	82	31
64	-113	26	70	31
8	-4	36	-32	31
-9	-4	38	-92	31
-1	-12	46	-5	31
0	13	8	17	31
-7	-42	-13	6	31
-26	102	14	22	31
-10	135	16	3	31
-35	37	4	-23	31
-37	-66	-6	-23	31
-24	-68	-5	-6	31
-22	-14	7	0	31
14	92	27	17	31
-15	340	11	17	31
9	203	2	34	31
50	-197	4	52	31
25	-262	2	52	31
30	-138	-2	1	31
7	-126	-22	-79	31
36	-112	1	-49	31
35	-46	10	1	31
-35	-42	10	11	31
-79	4	18	21	31
-77	24	5	-1	31
63	13	4	-25	31
9	31	-9	-29	31
-80	18	-6	-10	31
45	47	10	8	31
33	60	8	15	31
-24	41	5	15	31
0	36	-5	1	31
47	19	-14	-10	31
65	8	-18	-21	31
54	16	-9	-4	31
-9	51	7	23	31
-27	67	7	20	31
8	92	-4	11	31
-25	165	-9	-2	31
-24	79	-11	-16	31
-40	-138	-1	-6	31
-43	-156	6	0	31
-6	-39	9	2	31
35	-36	16	23	31
33	-47	-7	9	31
-41	-39	-22	-18	31
-32	-29	9	2	31
24	48	18	23	31
39	62	-7	9	31
54	34	-9	9	31
63	-41	1	24	31
27	-99	8	-6	31
-16	-21	11	-17	31
-15	49	2	15	31
26	36	-15	-7	31
-17	105	-22	-36	31
-127	504	-2	-24	31
-34	748	8	-5	31
-12	170	1	-1	31
-67	-713	-5	-5	31
46	-748	-2	-1	31
57	-239	9	14	31
82	-214	1	16	31
61	-45	11	4	31
-1	98	22	7	31
-4	-64	-7	-1	31
-21	-23	-14	16	31
-12	-155	-21	-7	31
-95	-97	-11	-34	31
-87	112	4	-12	31
-54	108	-7	-18	31
-2	135	7	18	31
191	90	0	46	31
191	80	6	34	31
47	154	6	6	31
10	71	-16	-24	31
-34	18	-1	-32	31
-95	20	3	-57	31
-130	-17	-10	-31	31
-140	26	-11	2	31
-87	39	-2	17	31
20	56	4	27	31
107	37	-16	7	31
-1	43	-14	0	31
-17	205	12	11	31
-33	161	-3	6	31
-220	-138	0	-1	31
-243	-277	17	50	31
-233	-135	19	77	31
-5	-48	10	17	31
340	-70	-31	-90	31
475	-47	-26	-96	31
254	-32	4	-44	31
29	65	14	-24	31
165	118	10	23	31
45	80	-4	9	31
50	-57	-3	1	31
52	-169	11	18	31
-10	50	27	43	31
47	200	37	41	31
-184	120	44	15	31
-274	96	35	12	31
-321	54	2	5	31
-244	-88	-36	4	31
-180	-63	-79	-13	31
-135	-19	-70	9	31
-104	-251	4	52	31
-75	-240	16	47	31
282	-70	-24	1	31
8	50	-41	-34	31
-135	226	-37	-24	31
344	142	-3	-39	31
377	-82	16	-49	31
424	-155	22	1	31
186	-48	8	2	31
-258	-123	-9	-49	31
-251	-179	6	-32	31
-203	87	-7	29	31
54	255	1	53	31
234	131	11	8	31
-206	-219	-14	-67	31
-439	-201	-7	-54	31
-67	-4	0	-1	31
376	81	15	33	31
765	207	33	79	31
383	73	17	58	31
-33	45	7	17	31
82	84	0	-2	31
-130	223	1	-42	31
-71	390	12	-60	31
-70	-34	7	-26	31
-106	-381	2	-1	31
-97	-168	0	12	31
-171	-74	-4	38	31
-52	-76	-11	22	31
-129	36	-10	14	31
-81	-21	-3	5	31
-64	2	-2	1	31
-49	23	3	20	31
22	11	9	31	31
-39	40	-4	-11	31
-90	-19	-12	-44	31
-158	9	-1	-3	31
-119	-15	-2	4	31
-107	-28	-13	-2	31
-24	-2	-5	-4	31
37	-6	2	-17	31
-31	-5	6	10	31
-19	-55	21	59	31
-32	-35	36	102	31
-36	34	52	125	31
-50	97	41	80	31
-124	87	-34	-60	31
-348	15	-65	-120	31
-316	-26	-34	-83	31
322	17	-1	-73	31
508	7	-1	-117	31
128	-112	-9	-115	31
159	-32	36	-24	31
227	70	47	-6	31
57	45	20	1	31
-6	-51	-8	11	31
-164	-98	-64	-6	31
-209	-1	-111	3	31
-143	-44	-84	21	31
-95	-67	-33	31	31
129	-47	-26	22	31
290	-37	23	41	31
218	-1	59	41	31
-37	-39	49	30	31
-79	-14	37	31	31
-63	-4	-6	26	31
-110	74	-23	26	31
1	77	-4	16	31
-106	-22	11	30	31
-165	67	31	64	31
-74	122	31	46	31
9	352	3	-6	31
178	555	9	-19	31
242	138	36	12	31
289	-382	1	4	31
170	-390	-54	-87	31
-24	-134	-44	-103	31
34	-133	-28	-50	31
-17	-211	-13	-31	31
-54	-147	-5	-10	31
-22	-92	7	24	31
-227	-52	21	41	31
-319	-18	32	37	31
-214	-19	49	43	31
-37	-33	22	42	31
150	143	18	53	31
146	237	5	42	31
82	118	-26	-54	31
-26	538	-7	-127	31
39	723	2	-33	31
178	-183	-26	-14	31
87	-745	-25	-67	31
102	-478	4	-12	31
0	-244	-2	-11	31
-36	-117	-9	-4	31
-36	-6	-6	11	31
-61	-10	-8	12	31
80	14	1	19	31
40	49	19	49	31
-84	58	20	70	31
-261	69	7	60	31
-187	47	15	74	31
-55	55	2	32	31
-105	47	-33	-29	31
-28	50	-17	-65	31
0	83	11	-51	31
128	61	9	-40	31
178	-23	-10	-21	31
22	-68	-16	15	31
18	4	-7	-4	31
7	24	-1	2	31
8	37	7	-8	31
-22	57	1	-21	31
-34	-17	-5	-8	31
31	-69	4	23	31
-1	-89	-14	-18	31
-72	-49	-16	-41	31
-113	18	22	30	31
-62	41	23	18	31
44	67	31	32	31
161	91	40	67	31
59	139	-14	28	31
6	118	-51	-16	31
27	-44	-41	-62	31
-43	-145	-8	-45	31
12	-117	11	12	31
-27	-55	5	9	31
-42	-27	-4	8	31
-49	86	-2	6	31
-71	290	-7	-1	31
-85	267	-3	7	31
-248	-59	15	-2	31
-380	-201	36	-1	31
-282	-93	38	7	31
-23	-178	22	24	31
296	-148	60	69	31
563	-57	89	83	31
265	-37	17	79	31
-53	262	-72	89	31
-36	365	-127	2	31
-201	-28	-155	-108	31
-50	-340	-82	-138	31
122	-168	16	-104	31
106	-53	24	-13	31
204	-73	7	-47	31
-119	16	-34	-120	31
-198	-36	-17	-54	31
186	42	23	-3	31
256	34	12	27	31
252	96	11	64	31
9	398	9	22	31
-158	90	11	2	31
17	-289	25	46	31
121	-138	59	55	31
130	-78	49	60	31
11	-10	2	67	31
-79	264	-20	-24	31
-131	176	-37	-127	31
-63	-275	-31	-110	31
-36	-335	-16	-60	31
-39	-71	8	19	31
16	-92	7	48	31
-22	20	18	37	31
-75	120	13	39	31
-158	30	-7	7	31
-127	109	18	21	31
6	54	11	7	31
4	31	-3	-12	31
-72	-30	-9	-1	31
-11	-68	-9	-1	31
59	32	6	22	31
87	1	2	21	31
25	71	5	34	31
18	217	5	15	31
19	126	-7	-27	31
-47	-161	0	14	31
13	-148	23	70	31
-21	79	15	55	31
-19	59	-13	2	31
-16	-27	6	-4	31
-27	-74	59	35	31
20	-47	93	89	31
0	11	49	22	31
-1	-29	-10	-105	31
-21	-21	-15	-123	31
-9	-24	-52	-60	31
-15	-26	-112	-26	31
-27	-1	-124	-37	31
-29	-5	-45	-21	31
-34	50	1	-6	31
-12	124	-13	18	31
-36	202	-19	2	31
-41	225	-34	-27	31
-34	68	-6	-8	31
-14	-248	-7	6	31
27	-327	-1	1	31
76	-112	39	0	31
93	-37	36	13	31
37	-16	23	26	31
8	33	13	34	31
-8	16	4	12	31
-28	-1	-1	4	31
-29	-34	3	14	31
-27	-21	8	26	31
-16	57	24	19	31
-20	102	30	4	31
-3	21	15	16	31
-24	-123	-5	-12	31
-106	-93	-24	-7	31
-47	2	1	55	31
13	12	27	23	31
27	102	6	-60	31
139	174	0	-92	31
68	307	15	-70	31
-34	484	6	-12	31
-7	104	-22	17	31
-8	-375	0	11	31
44	-322	6	19	31
94	-143	-7	13	31
132	-141	7	-7	31
26	-189	-12	-2	31
-19	-59	-11	16	31
16	32	-9	33	31
-69	58	-3	39	31
-42	62	-14	-2	31
-14	165	-14	19	31
100	268	7	70	31
70	-130	-3	14	31
-49	-328	10	-27	31
22	-60	1	-59	31
-17	-59	4	-42	31
-1	-12	8	-7	31
-75	82	-9	-4	31
-158	41	4	25	31
-19	151	6	-2	31
-12	111	-9	-27	31
-72	-36	-24	-36	31
-81	-158	-17	-30	31
-20	-149	12	5	31
102	-14	17	47	31
36	-21	-9	26	31
-27	2	-4	-14	31
48	28	26	14	31
32	12	17	27	31
24	59	2	6	31
23	222	6	-6	31
-9	359	-5	3	31
-21	204	-5	4	31
-52	53	7	10	31
-44	-70	1	31	31
-58	-394	-12	12	31
-43	-425	-22	-18	31
39	-129	-21	-24	31
75	-62	-5	-30	31
89	-60	6	-17	31
75	-40	-7	-8	31
-33	-30	1	-1	31
-30	85	2	20	31
37	112	-1	23	31
8	160	7	25	31
7	115	-5	15	31
-5	-22	3	0	31
-7	-55	12	7	31
-1	-36	3	12	31
-12	9	-7	-6	31
-6	14	-12	-12	31
-19	36	-6	-27	31
-21	12	-4	-37	31
-19	11	3	-15	31
-15	19	4	-15	31
-2	-4	1	-1	31
12	28	7	10	31
8	47	4	7	31
-13	133	-13	23	31
-19	145	-12	9	31
-31	-32	-2	-9	31
-39	-157	-8	-5	31
-29	-79	5	1	31
-9	-5	11	-3	31
-9	-19	-14	-10	31
-18	1	-21	-10	31
25	-50	2	12	31
46	1	9	22	31
13	112	12	16	31
14	104	19	7	31
27	127	-1	-8	31
22	338	-3	14	31
7	514	13	14	31
1	31	6	1	31
11	-562	-9	-4	31
32	-560	-11	-14	31
24	-207	-16	5	31
-21	76	-15	8	31
-38	-136	-9	6	31
-72	-299	3	-12	31
-107	-102	9	-34	31
-103	-67	3	1	31
-104	-31	-1	18	31
-158	119	-22	-17	31
-107	-27	-24	-27	31
75	-143	-16	-8	31
151	96	2	-6	31
194	224	19	0	31
178	93	-6	1	31
95	54	4	19	31
87	74	27	32	31
39	29	16	0	31
6	36	9	6	31
31	34	8	14	31
28	30	-5	-11	31
-17	24	-25	-31	31
-31	19	-14	1	31
-16	31	7	29	31
-32	16	2	9	31
-28	24	-3	-2	31
-26	31	12	2	31
-17	64	13	5	31
-33	98	2	14	31
-48	41	5	39	31
-21	-68	7	58	31
7	-64	2	36	31
11	-27	-13	-45	31
-13	-63	-6	-60	31
-21	-13	5	2	31
-26	14	1	14	31
-27	7	-12	-7	31
-35	23	-23	-43	31
-33	6	-11	-30	31
-6	27	5	1	31
16	31	27	15	31
19	5	2	19	31
-11	-2	-22	-9	31
-16	155	-9	-32	31
-6	278	-11	-44	31
-14	-62	8	-33	31
-26	-288	6	27	31
11	26	10	64	31
41	122	8	27	31
-6	70	-2	-64	31
-34	175	-2	-71	31
-22	-166	-11	-7	31
5	-537	-9	-6	31
26	-360	-1	16	31
33	-135	6	24	31
21	-4	-6	11	31
-4	298	4	4	31
-21	376	-1	-8	31
-18	-55	-6	12	31
12	-371	2	21	31
37	-189	2	26	31
42	-56	10	19	31
27	-110	4	7	31
-11	14	4	6	31
-99	47	-1	7	31
-191	79	-2	24	31
-175	95	-5	7	31
-121	9	2	-10	31
69	50	2	-7	31
255	78	1	-13	31
173	67	14	-6	31
70	-21	-1	1	31
22	19	4	13	31
16	65	-6	0	31
-13	118	-12	-9	31
-31	217	-9	7	31
-21	35	-21	-1	31
-29	-54	-12	-26	31
2	9	3	-28	31
7	82	13	-1	31
22	136	7	15	31
6	141	16	20	31
-51	9	8	17	31
-38	-216	-15	1	31
14	-178	-9	-34	31
85	-114	-4	-29	31
132	-111	1	22	31
2	-21	4	46	31
-92	14	-2	30	31
-120	31	12	38	31
-187	42	22	33	31
-108	8	3	-6	31
-31	-31	-21	-34	31
-4	-73	-22	-62	31
8	-93	-4	-54	31
-19	62	-24	-54	31
70	442	-31	-49	31
284	449	5	-9	31
231	-88	0	27	31
24	-381	-4	26	31
70	-260	-4	12	31
20	-141	-7	4	31
-28	-133	9	-1	31
-4	-70	7	13	31
-39	-24	2	11	31
-8	38	1	2	31
-44	105	6	9	31
-36	75	8	19	31
-39	226	8	17	31
-47	254	9	12	31
-31	-93	-3	9	31
-51	-270	-1	10	31
-34	-120	9	29	31
-8	-48	9	27	31
9	-6	-12	-2	31
-13	41	-22	-30	31
-6	-28	-6	-26	31
-66	36	-5	9	31
-156	48	-6	21	31
-135	52	1	13	31
-22	219	12	6	31
104	257	31	-1	31
83	-19	1	6	31
10	-193	-27	-1	31
6	-93	-1	5	31
23	-271	13	9	31
109	-200	-2	-22	31
163	65	-17	-80	31
16	42	-21	-74	31
-27	125	-12	-36	31
2	-12	0	-9	31
-11	-85	13	44	31
12	3	7	36	31
-27	-64	2	38	31
-33	-14	10	31	31
-126	50	4	3	31
-262	66	2	-7	31
-347	32	-15	-33	31
-372	-36	-37	-42	31
-105	-18	-22	-16	31
257	31	9	14	31
442	40	20	16	31
523	70	27	46	31
353	-33	19	28	31
90	-97	1	16	31
55	16	3	23	31
-24	-21	-5	-8	31
-37	-34	-2	-4	31
-34	-6	2	-4	31
-60	37	-17	-3	31
-39	98	-11	-27	31
-85	49	-1	-39	31
-69	21	-1	2	31
-79	63	6	23	31
-75	173	9	27	31
-62	132	12	20	31
-47	-90	10	-4	31
-12	-196	-20	-37	31
21	-151	-11	-28	31
50	-108	14	9	31
-12	56	-4	3	31
-32	289	-9	-9	31
-27	140	-1	-6	31
-38	-194	-5	-6	31
-14	-212	-7	9	31
-26	-77	-3	14	31
-52	-90	-4	-4	31
-75	-57	-12	-7	31
-60	-7	-4	4	31
22	-11	13	15	31
108	44	9	7	31
54	32	9	11	31
-15	55	3	11	31
9	163	1	-8	31
-69	207	11	10	31
-76	-23	9	27	31
20	-193	-2	22	31
37	-13	-7	7	31
69	-6	10	-11	31
32	-82	21	-19	31
-19	-54	21	-32	31
2	25	-2	-19	31
-20	181	-20	22	31
46	98	-13	17	31
79	-64	-2	13	31
-42	-104	-9	26	31
-51	-29	-19	14	31
9	-10	-13	19	31
6	-94	-6	3	31
32	-21	2	-57	31
-7	20	-10	-69	31
-32	-5	18	-1	31
-4	13	17	29	31
-49	1	-11	15	31
-51	-39	-11	-11	31
-23	-33	-16	-33	31
-13	-19	19	-24	31
3	29	18	-6	31
76	117	-16	17	31
16	176	-32	-13	31
-100	346	-26	-30	31
-95	320	-11	-14	31
-143	-157	-5	7	31
-79	-376	5	-14	31
-12	-174	6	-27	31
1	-108	-1	5	31
89	-57	-6	8	31
321	-1	16	32	31
432	6	19	40	31
102	30	8	36	31
-48	-12	19	39	31
-9	25	27	65	31
-69	22	23	84	31
-89	-49	-9	22	31
-100	-53	-36	-59	31
-22	-25	-26	-96	31
-32	1	-6	-34	31
-7	15	6	-7	31
2	110	-2	-31	31
-149	497	-11	-9	31
-109	814	-2	-18	31
-72	230	-9	-27	31
-89	-502	-13	-7	31
-3	-378	-2	26	31
64	-150	17	41	31
69	-302	9	39	31
-3	-297	-10	27	31
7	-257	-6	7	31
14	-184	13	16	31
36	34	17	20	31
18	-63	-21	17	31
-75	-34	-32	11	31
145	9	-6	-17	31
212	-13	12	-35	31
17	97	17	-29	31
7	208	0	-47	31
-41	295	-13	-16	31
-49	-71	4	21	31
-3	-299	1	11	31
-16	-74	5	14	31
22	-16	24	1	31
-2	-15	-3	-30	31
-21	70	-3	-29	31
11	88	7	4	31
11	131	-2	16	31
-1	86	-11	37	31
-82	-22	-22	15	31
-126	-6	-6	-37	31
-49	21	2	-41	31
-32	27	7	-4	31
-46	14	8	11	31
-34	31	1	14	31
-21	25	7	24	31
47	31	-4	-7	31
30	37	-11	9	31
-29	9	-4	27	31
-36	8	-1	5	31
-71	2	8	20	31
-47	33	4	12	31
-26	19	-9	-4	31
16	34	-6	26	31
139	107	13	84	31
69	54	12	99	31
-49	-102	-24	-6	31
-89	-112	-14	-132	31
-117	2	-1	-115	31
-3	-45	-15	-24	31
-39	-49	-8	-27	31
-20	-4	-12	-20	31
64	136	9	-8	31
190	337	26	-27	31
275	12	4	-6	31
16	-326	-7	-12	31
72	-211	-3	12	31
40	-110	12	18	31
12	-46	30	29	31
84	227	49	82	31
-70	456	32	103	31
-36	236	-2	82	31
-95	-167	-32	-4	31
-110	-200	-51	-75	31
-107	-56	-27	-84	31
-31	-5	-8	-63	31
60	136	-15	-50	31
29	214	-14	-26	31
69	206	-2	-6	31
43	-125	2	2	31
32	-404	4	13	31
-36	-280	1	12	31
9	-379	4	22	31
44	-313	-5	-4	31
-100	-64	-3	-8	31
-55	-17	14	23	31
12	2	15	49	31
-12	42	12	53	31
-12	62	-6	4	31
-26	52	-6	-20	31
-21	89	-6	-23	31
-17	62	-6	-34	31
-38	34	-3	-24	31
-32	44	-1	6	31
-2	53	14	14	31
11	57	14	24	31
1	40	6	21	31
-14	111	-21	-14	31
-19	222	-26	-16	31
-6	179	-6	-6	31
7	-75	10	18	31
11	-235	16	46	31
21	-129	7	41	31
20	-19	-12	22	31
4	-24	-28	-19	31
-1	3	-12	-36	31
4	15	6	-17	31
-4	16	7	-27	31
-7	37	14	-27	31
-11	32	16	7	31
-25	54	6	8	31
-13	31	0	2	31
19	11	-4	-4	31
29	0	-4	-16	31
11	-14	-3	1	31
-13	16	4	6	31
-47	20	12	-3	31
-38	24	-2	13	31
1	12	-2	26	31
2	1	5	12	31
4	2	9	20	31
-31	10	-6	30	31
-26	16	-16	2	31
16	-7	-17	-1	31
34	24	-17	-9	31
78	98	8	-12	31
43	86	12	1	31
-14	-21	14	-22	31
-19	-107	10	-22	31
-29	-97	-19	7	31
-18	-52	-28	-11	31
-1	-50	-15	-18	31
-19	-71	4	7	31
-50	-99	14	-19	31
-33	65	24	-8	31
39	378	19	67	31
82	252	-8	48	31
40	-237	-18	-8	31
-39	-224	-23	-25	31
-51	34	-20	-53	31
45	-128	4	-11	31
92	-113	15	75	31
33	-22	11	55	31
20	16	-8	-46	31
-15	136	-22	-103	31
-49	4	-10	-47	31
-31	3	-5	11	31
-34	49	-6	-9	31
-6	126	12	24	31
-4	387	32	36	31
-32	404	9	8	31
-39	67	-6	20	31
-3	-122	-4	-17	31
39	-281	6	-16	31
34	-624	1	1	31
12	-331	-11	25	31
18	-122	1	44	31
12	-295	-7	-10	31
-14	-61	7	-31	31
22	-58	4	-22	31
11	-22	-11	-9	31
-10	77	-6	-9	31
-2	21	-2	4	31
-32	111	-2	-4	31
-32	112	-2	-2	31
-32	186	21	19	31
-31	116	12	5	31
-1	-24	-10	15	31
46	9	-17	12	31
26	18	-3	21	31
-7	17	-7	23	31
13	-4	-17	-3	31
-3	19	-16	-9	31
11	20	-13	-36	31
11	37	8	-42	31
-6	41	2	-14	31
-6	32	5	19	31
-22	50	17	38	31
-12	35	13	17	31
-11	53	21	9	31
0	36	17	9	31
7	14	-3	-6	31
4	56	-22	8	31
-1	79	-16	17	31
-17	-17	-7	6	31
-26	-88	5	-2	31
-34	-26	-2	-20	31
-34	-34	-16	-31	31
-9	-31	7	5	31
32	17	1	4	31
40	37	0	-32	31
14	130	11	-2	31
19	153	9	7	31
26	150	0	-7	31
12	110	-10	-1	31
-9	-149	-3	1	31
-29	-318	-5	14	31
-21	-146	4	14	31
-27	37	4	7	31
-27	66	0	6	31
-28	217	11	12	31
-26	331	9	8	31
-4	28	2	-7	31
13	-481	-1	-9	31
41	-350	10	32	31
74	-56	2	66	31
62	-183	-23	21	31
1	77	-12	-52	31
-74	146	7	-108	31
-128	-50	-5	-49	31
14	-49	-12	44	31
81	-35	-8	21	31
-30	71	-6	-3	31
2	33	-1	-19	31
-7	59	1	-19	31
13	-29	-1	-9	31
19	-118	-4	-20	31
-39	40	-2	-2	31
7	24	-4	12	31
3	7	-12	5	31
-1	1	-9	1	31
-2	-3	2	19	31
21	28	8	20	31
68	8	2	3	31
55	26	0	17	31
9	74	5	36	31
-20	169	4	34	31
-32	198	2	6	31
-72	100	-4	-14	31
-62	-97	-4	-4	31
-50	2	9	-9	31
-30	358	7	-19	31
14	24	2	-14	31
43	-452	-4	-19	31
35	-40	-12	-5	31
54	279	-2	26	31
64	-55	-12	15	31
-19	-357	-14	-12	31
-16	-397	1	-2	31
-3	-146	6	25	31
25	-39	10	17	31
2	-26	-6	-23	31
-51	41	-8	-43	31
-26	-27	-7	-22	31
-41	48	-1	2	31
-8	109	9	20	31
-11	156	-1	16	31
-69	60	-2	-3	31
-74	-105	4	1	31
32	-42	17	13	31
95	-21	16	3	31
59	-20	2	-14	31
64	16	-11	-21	31
24	31	-4	-11	31
13	27	5	3	31
10	93	2	20	31
-7	197	1	9	31
-17	120	-1	-11	31
-34	-130	8	-2	31
-19	-146	-1	-15	31
-29	-1	-5	-6	31
-30	-51	-16	7	31
-42	-14	-16	11	31
-41	9	12	25	31
8	-2	10	9	31
62	68	10	-1	31
24	46	4	-11	31
-19	49	6	14	31
26	42	13	14	31
5	42	-7	-7	31
-15	56	-21	-21	31
-21	99	-26	-26	31
18	62	-1	14	31
34	-108	2	-16	31
1	-89	-9	-19	31
8	44	1	19	31
-33	88	4	21	31
-31	24	7	22	31
-34	-148	-12	-19	31
-58	-176	-15	-36	31
-33	-12	8	1	31
4	-32	12	12	31
42	-65	7	-6	31
17	97	-6	-11	31
22	203	-1	-4	31
13	80	-1	-5	31
-72	-140	-8	-9	31
-17	-90	7	21	31
57	-2	6	43	31
-11	-153	2	16	31
-21	-113	0	7	31
29	100	-4	11	31
53	234	5	22	31
56	308	13	38	31
-2	-106	-9	19	31
-36	-375	-25	-2	31
2	-77	-12	-10	31
38	-113	-27	-54	31
9	-82	-16	-70	31
-10	25	17	-7	31
0	-53	23	19	31
-16	33	16	12	31
-12	12	-5	4	31
-26	32	-8	4	31
-40	53	-6	5	31
-39	27	-1	-1	31
-41	60	3	4	31
-43	79	1	-8	31
-30	204	4	-2	31
34	244	5	11	31
37	306	-1	9	31
-33	209	-5	7	31
-24	-186	-7	12	31
28	-223	-4	7	31
27	-150	12	-18	31
23	-381	-1	-25	31
15	-287	-4	-7	31
-9	-16	2	-4	31
-5	-67	-13	-17	31
-28	99	-11	-14	31
-12	213	12	0	31
50	60	18	16	31
31	-60	1	30	31
-6	-171	-9	16	31
15	-59	7	8	31
47	75	27	22	31
4	91	17	5	31
-36	-13	-24	-49	31
-45	-36	-36	-24	31
-76	144	-16	20	31
-110	183	-17	14	31
-77	50	6	31	31
-15	-111	19	-2	31
65	-160	12	-11	31
170	-51	27	21	31
119	36	2	-1	31
70	-19	-23	-44	31
25	-37	-21	-75	31
-28	9	-6	-27	31
3	92	7	10	31
-9	232	1	19	31
24	188	8	39	31
24	-79	6	30	31
-4	-244	-3	24	31
-34	-80	-9	-9	31
-55	1	-1	-36	31
-34	-24	13	-28	31
-65	94	2	-4	31
-74	41	-12	-3	31
-115	-56	-22	-6	31
-146	-24	-28	7	31
-144	-24	-4	10	31
-46	-95	12	24	31
178	-72	11	28	31
111	-10	-2	14	31
-35	-16	-12	-1	31
82	62	6	-21	31
149	71	4	-34	31
114	117	-2	4	31
28	275	-16	16	31
-7	149	-22	-6	31
7	-183	2	3	31
-12	-242	28	21	31
21	-74	17	19	31
9	-57	11	-16	31
15	-29	22	15	31
-4	74	3	19	31
-19	69	18	10	31
-9	24	17	4	31
-42	-109	-12	-28	31
-28	-129	-9	-7	31
-21	1	19	11	31
-2	5	18	38	31
5	-1	-22	35	31
-5	74	-29	28	31
-33	75	-22	11	31
-70	36	-10	-18	31
-80	62	-11	-10	31
-62	174	-11	16	31
-23	420	-12	2	31
-49	307	-25	-89	31
-25	-333	-19	-104	31
104	-469	2	-42	31
106	-214	37	2	31
26	-193	6	11	31
44	-34	-11	-6	31
12	37	5	-9	31
-13	72	-4	4	31
8	125	4	2	31
-42	-37	-4	1	31
-47	-40	-2	22	31
-42	-4	1	22	31
-6	-33	14	26	31
27	-20	19	16	31
26	-2	-1	-3	31
67	20	-1	-1	31
50	30	-9	17	31
27	45	-13	16	31
14	11	-19	-24	31
-29	-6	-11	-24	31
-25	12	-3	-12	31
-14	12	1	1	31
-40	19	23	31	31
-39	19	14	26	31
-7	9	9	27	31
7	3	11	34	31
11	9	-14	15	31
-9	19	-26	6	31
-59	24	-1	-7	31
-72	69	21	-3	31
-65	351	7	16	31
-38	763	-7	24	31
50	480	-7	6	31
43	-418	-6	-31	31
-26	-826	-4	-25	31
31	-605	-10	-19	31
70	-289	2	-11	31
29	-81	14	1	31
-24	53	-5	-16	31
-31	78	-15	-11	31
-4	97	-7	-4	31
-66	85	-6	-4	31
11	-24	1	-6	31
86	-63	2	-14	31
43	-63	1	-12	31
82	-70	12	3	31
47	-54	9	0	31
-3	15	4	3	31
-29	39	24	38	31
-1	125	37	29	31
12	282	9	8	31
-19	234	-30	9	31
29	72	-36	6	31
-5	-104	-6	6	31
-27	-246	14	-7	31
15	-196	7	-2	31
-9	94	5	6	31
-22	196	-4	12	31
-23	-43	-12	-3	31
-17	-226	-32	-75	31
-47	-227	-34	-77	31
-22	-49	2	4	31
17	71	-2	19	31
-9	97	-10	-4	31
29	49	2	16	31
29	32	17	61	31
-4	62	11	66	31
0	10	-17	24	31
-12	30	-10	-11	31
-12	19	12	-39	31
-7	19	5	-35	31
-9	17	8	10	31
-27	1	18	17	31
