File Name: not saved
Channel 1: 'EMG 1', 21468 values, raw ADC, no filters.
Channel 2: 'EMG 2', 21468 values, raw ADC, no filters.
Channel 3: 'EMG 3', 21468 values, raw ADC, no filters.
Channel 4: 'EMG 4', 21468 values, raw ADC, no filters.
Digitals combined (event=16, d=8, c=4, b=2, a=1): 21468 values, .

-2	0	-14	20	31
2	-4	-95	87	31
-1	-9	-120	56	31
1	-7	-73	-33	31
0	-7	-36	-125	31
-8	-7	-9	-83	31
-12	-5	-10	56	31
-9	-1	8	21	31
-2	4	39	-70	31
-2	-1	47	-44	31
-4	1	52	-71	31
-2	2	38	-55	31
1	4	21	21	31
3	6	2	31	31
3	6	12	29	31
0	7	8	59	31
-4	2	9	44	31
-4	1	24	81	31
0	-3	15	118	31
-1	-2	6	95	31
-1	-3	-22	39	31
-1	-6	-40	-69	31
-1	-2	-76	-117	31
-3	-4	-89	-45	31
-4	-6	-28	-7	31
-1	-2	21	-77	31
-1	0	52	-60	31
-7	-2	62	-89	31
-4	0	59	-77	31
6	9	49	166	31
2	6	4	206	31
2	3	7	-88	31
1	2	37	-69	31
-2	1	12	91	31
0	2	9	9	31
-4	-4	47	135	31
-3	-6	54	126	31
-7	-10	-2	-85	31
-12	-11	-22	-204	31
-4	-2	6	-230	31
-1	7	-20	-107	31
2	11	-41	5	31
4	14	-12	22	31
2	8	2	-32	31
0	0	6	-12	31
-2	-3	16	5	31
-2	-3	-1	13	31
2	-1	-12	29	31
4	-2	0	57	31
0	-1	-32	157	31
-2	1	-82	271	31
-2	-1	-102	317	31
-3	-2	-87	195	31
-1	-1	-49	-50	31
-2	-2	1	-379	31
-9	-7	39	-441	31
-11	-9	39	-158	31
-5	-5	94	-4	31
6	1	176	2	31
2	4	153	-26	31
-2	0	66	-35	31
4	0	9	19	31
2	0	-77	92	31
1	-3	-116	72	31
5	4	-90	-19	31
3	6	-130	-17	31
2	3	-64	35	31
-4	1	33	-14	31
-6	-4	37	-59	31
-2	-2	0	5	31
-2	-3	-76	26	31
-7	-9	-93	7	31
-9	-14	-97	39	31
-8	-17	-34	86	31
-9	-11	53	95	31
-10	-1	57	38	31
1	7	67	-28	31
6	8	36	-25	31
2	7	28	32	31
3	6	31	55	31
0	1	-13	3	31
-4	-2	-33	-65	31
-3	-3	-49	-60	31
-6	-6	-6	-2	31
-7	-6	38	82	31
-4	-2	39	163	31
0	-1	49	229	31
1	1	42	240	31
1	3	57	31	31
1	1	45	-267	31
2	3	24	-290	31
1	1	23	-196	31
-1	2	-18	-36	31
0	2	-50	86	31
-9	-4	-60	34	31
-11	-6	-23	44	31
-2	-1	17	-107	31
7	2	25	-199	31
9	6	1	-31	31
5	4	-16	36	31
4	-1	10	23	31
-1	-2	31	59	31
-1	0	49	107	31
3	1	47	175	31
-4	-2	6	141	31
-9	-8	-95	41	31
-9	-9	-172	-95	31
-9	-6	-92	-218	31
-8	-4	10	-31	31
-7	-2	13	54	31
-4	-1	15	-145	31
-2	0	45	-159	31
-1	2	0	-17	31
3	2	-69	72	31
5	1	-74	80	31
1	3	-32	135	31
-1	2	40	100	31
-1	1	136	-110	31
-1	2	165	-199	31
0	1	88	-85	31
0	0	14	27	31
-2	-2	-103	41	31
-2	-4	-152	-27	31
-3	1	-23	-64	31
0	7	28	-41	31
0	6	32	57	31
-3	4	63	254	31
-2	6	14	170	31
-1	6	-37	6	31
1	11	-50	16	31
2	7	-24	-5	31
2	3	-44	56	31
-5	-2	-20	44	31
-6	-9	44	-33	31
-7	-13	13	-90	31
-6	-16	22	-61	31
1	-7	19	14	31
-1	-2	12	-50	31
0	-2	29	-26	31
0	-1	1	12	31
-4	-2	-51	-26	31
2	1	-64	97	31
4	2	-40	110	31
4	0	-47	-32	31
0	-1	-36	-90	31
-5	-4	16	-162	31
-5	-1	80	34	31
-5	1	115	206	31
-3	-2	112	62	31
-6	0	79	-123	31
-5	-2	-4	-196	31
1	-4	-79	-78	31
1	-2	-125	25	31
4	1	-107	128	31
2	2	-46	174	31
1	0	7	120	31
2	-3	72	-75	31
3	-2	62	-332	31
3	-2	2	-208	31
-4	-7	-24	22	31
-11	-8	-14	5	31
-8	-1	33	28	31
-2	1	45	105	31
1	-2	27	102	31
-4	-1	7	117	31
-3	2	-28	122	31
2	5	-50	-8	31
3	2	-13	-108	31
7	2	36	39	31
2	1	34	49	31
-7	-3	16	-64	31
-7	-2	-14	-85	31
-6	-3	-67	-123	31
-10	-6	-87	-105	31
-11	-2	-20	-63	31
-8	1	41	69	31
-7	1	54	90	31
-4	0	95	65	31
3	1	120	107	31
11	2	114	29	31
12	2	47	13	31
5	4	-59	122	31
4	5	-177	229	31
-1	-2	-230	285	31
-11	-7	-117	186	31
-11	-7	2	-112	31
-4	-2	73	-80	31
2	7	79	140	31
7	12	-13	-153	31
7	9	-58	-651	31
-2	-2	-77	-593	31
-4	-2	-45	-118	31
0	2	29	85	31
-4	-4	79	63	31
-9	-6	59	41	31
-9	-6	7	151	31
-1	-2	27	218	31
2	-1	83	131	31
-5	-9	82	151	31
-6	-8	4	-133	31
-6	-7	-4	-413	31
-4	-5	4	-64	31
-1	-1	-18	87	31
-1	-1	-39	76	31
-1	-1	-84	247	31
-2	2	-73	185	31
1	6	-51	145	31
6	5	-29	-11	31
6	7	20	-228	31
4	7	25	-168	31
1	2	-22	-16	31
-2	-3	-31	-27	31
6	-1	9	-30	31
5	-1	28	-10	31
-5	-6	52	-2	31
-5	-6	36	42	31
-6	-3	13	50	31
-6	-2	30	120	31
-7	2	14	17	31
-5	7	19	-30	31
-1	4	11	4	31
0	0	-3	-4	31
4	-1	-14	28	31
3	-3	-27	-6	31
1	-4	-20	-9	31
-1	-4	-32	-48	31
1	4	-9	-57	31
9	9	6	43	31
4	4	-19	202	31
1	-1	-36	174	31
-2	-4	-35	65	31
-12	-7	-29	166	31
-15	-4	2	159	31
-4	3	55	112	31
-1	-6	60	79	31
-9	-9	101	-131	31
-8	0	114	-409	31
-1	3	76	-362	31
-6	2	9	-117	31
-16	-2	-95	-40	31
-13	-1	-73	6	31
-3	1	12	9	31
2	3	62	-27	31
1	5	23	-49	31
-4	1	-65	86	31
-6	2	-107	54	31
-1	-1	-105	-40	31
0	-1	-104	87	31
2	2	-98	97	31
11	7	-32	46	31
2	-1	4	94	31
-10	-8	98	56	31
-14	-11	198	-228	31
-10	-9	145	-285	31
-2	-2	83	-217	31
0	-3	-6	-96	31
8	5	-91	43	31
9	10	-70	14	31
12	8	-29	110	31
9	7	-72	67	31
4	6	-93	7	31
0	2	-60	59	31
-6	-1	-54	19	31
-1	2	11	7	31
-1	2	38	117	31
-5	1	37	199	31
-1	1	64	178	31
2	1	42	178	31
1	-2	9	143	31
-6	-9	-48	43	31
-9	-16	-29	-135	31
-3	-11	12	-185	31
1	0	-7	4	31
-2	-2	-38	12	31
-5	-3	-44	-158	31
-6	-1	17	-299	31
-3	1	81	-218	31
0	2	105	111	31
-2	-1	29	15	31
-3	-1	-43	-94	31
1	-2	-59	130	31
-2	-5	-62	156	31
-4	-4	21	151	31
-6	-5	82	175	31
-3	-4	45	191	31
-4	-3	-17	155	31
-9	-4	-79	80	31
-2	2	-80	-132	31
-1	7	3	-295	31
-6	3	48	-164	31
-4	6	37	-142	31
-2	2	21	-52	31
-2	-1	3	176	31
-1	1	8	145	31
-2	-4	7	64	31
-4	-4	6	15	31
1	-5	2	-224	31
-2	-8	5	-439	31
4	1	36	-153	31
8	9	79	75	31
3	6	87	31	31
0	-2	19	63	31
-3	-1	-25	-103	31
0	1	-64	-34	31
0	-1	-100	112	31
-1	-1	-40	55	31
-1	-4	14	72	31
-9	-6	-11	49	31
-2	-1	-47	132	31
0	2	-55	107	31
0	2	-40	-69	31
3	4	-3	-108	31
-5	-4	33	-70	31
-11	-9	47	33	31
-6	-6	48	62	31
-1	-1	37	18	31
3	8	22	12	31
2	11	12	-26	31
-3	3	1	1	31
-5	-3	-15	52	31
-2	-6	-47	62	31
0	-8	-50	66	31
-1	-11	-29	110	31
1	-6	-42	154	31
2	0	-26	89	31
3	-2	-19	11	31
4	-1	-16	-129	31
0	-4	17	-206	31
-4	-5	12	-84	31
-7	-2	54	-19	31
-4	0	108	2	31
2	4	42	71	31
-1	4	-36	82	31
1	4	-105	94	31
1	2	-151	92	31
-7	-2	-50	21	31
-9	-2	52	-99	31
1	4	37	-106	31
4	6	24	-38	31
-2	-1	9	-12	31
-4	-2	9	81	31
-4	2	16	142	31
-2	3	7	70	31
1	5	39	-132	31
2	2	61	-295	31
-1	3	84	-353	31
-6	2	79	-237	31
-16	-2	-25	-47	31
-16	-6	-123	-77	31
-6	-6	-74	-26	31
5	1	19	128	31
10	2	13	321	31
9	4	-11	410	31
11	6	-11	191	31
1	2	19	-26	31
-4	0	6	-191	31
1	-5	-39	-38	31
0	-11	-77	34	31
-1	-11	-84	-137	31
2	-8	-6	-176	31
2	-7	54	-267	31
3	-5	117	-7	31
-4	-5	125	148	31
-9	-1	69	82	31
-5	6	29	144	31
-5	2	-7	115	31
-2	1	-59	82	31
-1	4	-95	46	31
-3	6	-42	41	31
1	11	-16	3	31
1	7	-16	4	31
-1	2	-20	28	31
3	4	-44	63	31
5	4	-31	-46	31
-2	-4	45	-103	31
-6	-7	136	-17	31
-5	-4	113	-9	31
-4	-1	1	117	31
-2	1	-118	86	31
1	4	-189	100	31
6	7	-125	295	31
-5	-1	67	256	31
-15	-7	146	-138	31
-7	-8	44	-299	31
-7	-9	-2	-165	31
-11	-7	9	-355	31
-12	-10	19	-348	31
-6	-3	49	-45	31
5	10	57	96	31
6	13	29	100	31
2	6	-25	64	31
0	1	-59	5	31
2	1	-132	82	31
6	-1	-153	90	31
1	-2	-54	-100	31
-4	-6	23	-296	31
-4	-6	58	-193	31
-1	-3	37	80	31
1	-1	21	13	31
1	1	4	54	31
6	1	-24	96	31
6	2	-21	75	31
1	1	-18	145	31
3	-1	3	2	31
-3	-2	37	-75	31
-2	0	54	-40	31
4	4	87	147	31
-2	0	147	342	31
-6	-4	141	213	31
-4	-4	83	-69	31
-11	-1	2	-254	31
-12	1	-98	-266	31
-2	4	-122	-45	31
-1	1	-60	49	31
-5	-11	-80	68	31
1	-11	-84	16	31
1	-12	-79	-120	31
-4	-13	-143	92	31
-3	3	-74	207	31
1	7	14	75	31
1	1	59	94	31
-4	-1	65	160	31
-4	-5	37	-62	31
-2	-4	65	-181	31
1	-4	45	-39	31
-1	-4	34	11	31
-6	-6	50	103	31
-7	-6	18	154	31
-13	-7	-6	183	31
-3	-4	-39	205	31
4	3	-62	-90	31
1	6	-34	-471	31
7	12	6	-379	31
7	7	2	-77	31
2	2	-13	138	31
4	3	-18	246	31
-2	-2	-36	-112	31
-7	-2	5	-416	31
-3	-1	89	-335	31
-2	2	116	-138	31
-1	0	77	57	31
5	3	26	67	31
6	7	-35	114	31
-3	0	-44	153	31
-5	-1	20	121	31
-7	27	1	194	31
-10	97	-26	236	31
-6	136	-23	146	31
-13	90	-82	14	31
-19	-22	-64	-158	31
-13	-141	-2	-305	31
-2	-178	-9	-107	31
9	-123	-5	43	31
17	-50	27	-55	31
21	-18	54	-19	31
16	6	87	-3	31
6	12	42	52	31
6	10	-17	112	31
1	11	27	115	31
-6	0	9	-43	31
-5	7	-62	-133	31
-11	2	-65	94	31
-12	5	-65	52	31
-3	17	-64	9	31
-9	7	-54	131	31
-15	10	-54	127	31
-12	11	8	176	31
-3	14	11	160	31
4	18	-47	3	31
0	9	-24	-163	31
-2	2	38	-247	31
-2	-6	92	78	31
1	-2	49	299	31
4	7	37	223	31
6	9	52	281	31
5	11	16	-72	31
-4	7	13	-403	31
-8	3	-1	-456	31
-9	2	-2	-370	31
0	4	33	-161	31
4	4	27	-165	31
-6	2	-2	-79	31
-2	4	-16	0	31
-2	1	-78	21	31
-4	-1	-65	150	31
4	6	-27	310	31
0	6	-76	393	31
1	11	-100	297	31
-1	11	-74	51	31
-7	2	31	-338	31
-7	1	89	-398	31
-9	-2	62	-64	31
-4	-4	39	17	31
-1	-4	27	45	31
2	-2	32	91	31
3	2	37	19	31
-3	-1	28	104	31
1	-1	11	153	31
5	1	13	-19	31
5	-2	24	-235	31
2	-10	10	-206	31
-6	-16	-45	-147	31
-11	-16	-85	-94	31
-12	-7	-72	59	31
-12	1	-32	33	31
-5	5	29	128	31
4	6	52	108	31
2	5	52	65	31
3	4	19	229	31
6	4	-13	111	31
3	1	2	201	31
1	0	-21	121	31
-1	2	-38	36	31
5	7	-41	263	31
4	6	-12	120	31
-7	-2	116	-166	31
-10	-9	206	-407	31
-11	-12	223	-311	31
-13	-14	224	-330	31
-11	-12	19	-193	31
-9	-11	-275	62	31
-12	-8	-274	-12	31
-4	-2	-133	89	31
1	1	-105	4	31
3	2	-82	19	31
11	7	-65	36	31
12	11	-61	16	31
9	10	-4	120	31
6	7	37	78	31
1	3	61	-4	31
1	-1	82	-82	31
-2	-7	73	6	31
-6	-9	64	22	31
-1	-9	3	120	31
-2	-4	-85	251	31
-5	-4	-115	167	31
-5	-5	-78	62	31
-4	-2	21	-150	31
-5	-1	58	-126	31
-3	2	27	9	31
-2	3	5	-136	31
1	1	7	-103	31
6	1	-2	-65	31
2	1	-29	-145	31
6	2	35	-44	31
13	3	74	48	31
11	-1	14	22	31
-1	-11	2	-33	31
-8	-12	13	96	31
-4	-4	23	358	31
-1	-4	36	358	31
4	-3	7	160	31
2	-2	-18	-145	31
-4	-9	32	-401	31
-11	-12	29	-155	31
-14	-10	-34	-49	31
-7	-4	-29	-150	31
-5	2	-55	44	31
-2	7	-31	88	31
0	11	11	105	31
4	10	-51	141	31
3	6	-72	55	31
-1	3	-47	66	31
4	6	-20	94	31
0	2	82	-140	31
-7	1	175	-497	31
-1	4	86	-408	31
-1	-1	-4	-61	31
-3	-1	-6	57	31
-3	-7	-60	108	31
-4	-11	-57	229	31
1	-11	-21	245	31
-1	-10	-47	152	31
-6	-6	-19	-8	31
-4	-1	32	-126	31
-1	2	49	-98	31
0	-2	37	-46	31
-3	-1	14	11	31
2	4	29	40	31
-4	4	34	50	31
-10	3	-1	42	31
-10	4	-37	29	31
-6	5	-59	30	31
1	4	-37	17	31
1	4	-3	-7	31
4	5	9	-37	31
3	6	7	-16	31
-1	0	-11	-6	31
-5	-3	-12	-11	31
-5	2	-19	-1	31
2	3	-37	-31	31
4	4	-27	-50	31
2	5	-4	9	31
1	4	17	166	31
1	6	26	248	31
1	1	6	89	31
-1	0	20	-146	31
-1	1	65	-252	31
-2	1	64	-121	31
-2	-2	47	40	31
-11	-8	68	77	31
-10	-7	46	122	31
-1	-1	-27	41	31
-1	-2	-39	20	31
-3	-3	-45	192	31
-4	-6	-60	330	31
-4	-6	-72	291	31
-7	-6	-111	72	31
-6	-7	-75	-420	31
1	-7	-60	-667	31
-4	-8	-21	-107	31
-4	-6	32	156	31
1	-1	22	21	31
-1	0	17	27	31
-4	1	-13	-118	31
-2	2	25	-228	31
1	2	27	-160	31
3	2	-1	10	31
-1	1	6	57	31
-2	-4	31	26	31
-8	-11	24	-108	31
-10	-8	6	-321	31
-2	-1	34	-265	31
-3	1	-25	39	31
-2	-1	-10	218	31
-4	-6	42	286	31
-16	-12	45	266	31
-5	0	87	168	31
15	12	45	112	31
13	4	12	24	31
4	-1	24	20	31
2	1	-25	-2	31
6	1	-64	24	31
6	-1	-52	25	31
-1	-7	-41	2	31
2	-6	-1	7	31
1	-4	5	-21	31
-2	-1	-52	-29	31
4	4	-70	-65	31
2	9	-56	27	31
6	14	-2	114	31
2	7	63	186	31
0	6	62	266	31
0	8	-14	-14	31
-9	0	-39	-174	31
-6	-1	-11	-1	31
-3	0	6	-49	31
2	1	26	-53	31
2	2	40	-148	31
-1	-1	51	-240	31
-5	-6	33	-36	31
-8	-2	19	24	31
-4	2	1	65	31
-1	1	-45	64	31
-2	1	-52	-100	31
-5	-4	-42	-203	31
-1	-1	-30	-41	31
-2	2	3	122	31
-5	2	1	115	31
0	7	9	22	31
-4	-1	3	-46	31
-5	-6	15	81	31
-2	-9	26	143	31
-1	-12	-9	116	31
2	-1	-16	85	31
6	-2	-22	-46	31
3	-3	34	-142	31
-2	-2	55	21	31
-7	1	6	118	31
-11	14	-34	92	31
-6	16	-67	-74	31
-4	8	-67	-429	31
-14	-1	-16	-508	31
-13	-17	90	-266	31
2	-14	101	188	31
16	-7	29	130	31
9	-16	-8	-17	31
-4	-16	6	95	31
-3	-7	41	-4	31
-6	-2	7	110	31
-7	1	-18	142	31
-1	3	-14	140	31
2	-1	-46	84	31
6	2	-51	6	31
2	4	5	78	31
0	5	-26	65	31
6	9	-80	18	31
4	6	-36	19	31
2	6	-31	12	31
0	4	-14	-57	31
-6	-2	7	-41	31
-4	-2	7	0	31
-4	-3	-11	87	31
-4	2	-28	230	31
2	6	17	181	31
2	3	45	-150	31
-1	14	125	-269	31
-9	60	117	-185	31
-21	121	-2	-31	31
-25	117	-59	90	31
-25	42	-58	-29	31
-12	-45	0	46	31
1	-123	13	50	31
11	-161	68	-7	31
26	-102	92	39	31
23	-32	-6	12	31
5	-38	-85	-81	31
-4	-13	-164	-16	31
2	-2	-158	200	31
9	-1	-74	282	31
14	20	-9	199	31
5	8	44	-103	31
-8	17	53	-153	31
-10	16	24	-117	31
-6	12	9	-232	31
2	17	67	-476	31
-3	4	151	-345	31
-7	-4	139	63	31
2	0	50	-31	31
3	6	-25	60	31
-6	-3	-69	14	31
-13	1	-65	-14	31
-12	4	-36	130	31
-18	0	-11	27	31
-24	-2	2	139	31
-21	-4	-12	154	31
-20	4	26	-12	31
-25	4	73	39	31
-28	6	58	243	31
-7	6	-11	-6	31
28	9	-146	-198	31
69	17	-188	-155	31
62	14	-69	-110	31
16	20	103	230	31
11	18	140	231	31
5	13	54	52	31
-11	10	-90	2	31
-11	8	-120	-119	31
0	16	27	-153	31
10	4	35	-28	31
3	-12	-1	132	31
-7	-19	5	247	31
-16	-14	34	282	31
-16	-5	63	115	31
-9	-1	31	11	31
-9	-4	-32	59	31
-11	-5	-101	-28	31
1	-1	-65	-245	31
6	0	-24	-391	31
-2	1	-9	-186	31
7	7	-12	78	31
14	10	15	37	31
1	1	70	126	31
-17	-9	122	175	31
-17	-7	272	34	31
-12	-7	278	50	31
-15	-7	86	117	31
-7	-2	-82	-80	31
2	1	-262	-409	31
-1	2	-363	-391	31
-10	-5	-232	-251	31
-15	-12	-102	-242	31
-6	-9	-46	-266	31
-5	-7	2	-29	31
-11	-7	15	231	31
-1	1	37	123	31
14	7	103	138	31
17	7	160	165	31
6	5	134	218	31
-2	2	72	262	31
-7	-2	-26	14	31
1	-2	-21	37	31
6	2	5	57	31
-5	4	-62	31	31
1	8	-47	82	31
6	11	-41	17	31
2	9	-16	51	31
-5	2	80	46	31
-13	-6	71	165	31
-11	-7	60	251	31
-6	-7	44	135	31
-10	-12	-55	-71	31
-13	-16	-108	-320	31
-4	-4	-123	-232	31
9	11	-99	-36	31
22	16	-63	105	31
16	16	-26	277	31
4	16	18	327	31
0	11	69	-2	31
-6	2	108	-441	31
-7	-4	46	-325	31
-13	-20	22	-325	31
-5	-21	54	-128	31
9	-6	37	179	31
2	-7	33	-85	31
0	-1	100	-200	31
4	7	49	-159	31
-5	8	-90	533	31
-7	21	-165	865	31
-12	67	-199	516	31
-41	166	-133	-26	31
-64	231	-3	-782	31
-70	157	143	-884	31
-48	0	209	-636	31
-12	-148	45	-252	31
18	-251	-56	21	31
53	-247	60	151	31
62	-101	102	218	31
32	-4	70	234	31
-10	-27	8	233	31
-17	-50	-19	181	31
6	-96	-111	-47	31
14	-93	-189	-194	31
26	-54	-42	79	31
58	-22	9	233	31
69	3	-15	311	31
14	1	79	84	31
-6	19	85	-151	31
2	27	-67	-193	31
-5	34	-91	-82	31
6	28	-41	47	31
-12	12	-38	-17	31
-27	17	16	121	31
-42	14	80	65	31
-49	18	135	110	31
-24	26	98	127	31
-10	40	9	82	31
-4	59	-57	96	31
-1	113	-127	-30	31
-12	196	-74	-53	31
-12	196	-74	-53	31
-11	178	-70	-58	31
-10	159	-65	-64	31
-9	141	-60	-70	31
-7	122	-55	-76	31
-6	104	-50	-82	31
-5	85	-46	-88	31
-3	67	-41	-94	31
-2	48	-36	-100	31
-1	30	-31	-106	31
1	11	-26	-112	31
4	43	-54	-300	31
3	131	-79	-154	31
-11	211	-97	297	31
-52	217	-72	238	31
-74	153	41	160	31
-59	-1	143	-3	31
-49	-199	168	-423	31
-17	-215	142	-298	31
12	-9	9	87	31
-8	319	-94	149	31
-109	612	-60	189	31
-166	593	-2	37	31
-98	199	-31	-248	31
-41	-383	-45	-142	31
55	-870	-26	-8	31
204	-1002	-41	17	31
256	-679	2	39	31
244	-325	-5	-10	31
167	-226	-50	-15	31
91	-56	-52	64	31
54	15	-52	75	31
-2	30	9	-60	31
-20	92	69	44	31
-24	73	98	277	31
-18	120	55	69	31
-12	110	-30	-11	31
-17	110	-70	92	31
-29	113	117	85	31
-41	96	391	135	31
-41	96	391	135	31
-42	87	366	81	31
-44	78	341	27	31
-45	68	316	-28	31
-47	59	291	-82	31
-49	49	265	-137	31
-50	40	240	-191	31
-52	31	215	-245	31
-53	21	190	-300	31
-55	12	165	-354	31
-57	2	139	-409	31
-44	21	84	-168	31
-15	-79	-19	14	31
13	-165	-176	-12	31
36	-161	-154	-32	31
55	-72	27	130	31
35	24	17	261	31
12	14	-2	214	31
21	40	30	206	31
22	32	18	252	31
12	14	78	72	31
-2	16	251	-102	31
0	30	363	-246	31
1	179	283	-272	31
-40	325	-8	-58	31
-59	300	-255	266	31
-45	120	-259	225	31
-38	-124	-6	-311	31
-5	-369	209	-544	31
47	-424	31	-237	31
60	-215	-221	264	31
37	-20	-344	377	31
-1	36	-315	348	31
-22	64	-124	281	31
-16	57	33	-167	31
-22	34	103	-347	31
-19	65	179	-285	31
-14	103	113	-364	31
-32	150	-73	-254	31
-57	100	-46	-105	31
-67	-64	46	-59	31
-27	-175	39	241	31
12	-143	-77	242	31
29	-22	-118	-163	31
38	-85	43	-221	31
57	-165	264	150	31
116	-115	278	175	31
128	-129	150	314	31
79	-77	-34	357	31
51	2	-267	17	31
51	2	-267	17	31
51	2	-265	16	31
51	2	-262	15	31
50	2	-259	14	31
50	2	-256	13	31
49	2	-253	12	31
49	2	-250	11	31
48	2	-247	10	31
48	2	-244	9	31
47	2	-241	8	31
47	2	-238	6	31
46	2	-235	5	31
46	2	-232	4	31
45	2	-229	3	31
45	2	-226	2	31
44	2	-223	1	31
44	2	-220	0	31
43	2	-217	-1	31
43	2	-214	-2	31
42	2	-211	-3	31
42	2	-208	-5	31
41	2	-205	-6	31
41	2	-202	-7	31
40	2	-199	-8	31
40	2	-197	-9	31
39	2	-194	-10	31
39	2	-191	-11	31
38	2	-188	-12	31
38	2	-185	-13	31
37	2	-182	-14	31
37	2	-179	-16	31
36	2	-176	-17	31
36	2	-173	-18	31
35	2	-170	-19	31
35	2	-167	-20	31
34	2	-164	-21	31
34	2	-161	-22	31
34	2	-158	-23	31
33	2	-155	-24	31
33	2	-152	-25	31
32	2	-149	-27	31
32	2	-146	-28	31
31	2	-143	-29	31
31	2	-140	-30	31
30	2	-137	-31	31
30	2	-134	-32	31
29	2	-131	-33	31
29	2	-129	-34	31
28	2	-126	-35	31
28	2	-123	-36	31
27	2	-120	-38	31
27	2	-117	-39	31
26	2	-114	-40	31
26	2	-111	-41	31
25	2	-108	-42	31
25	2	-105	-43	31
24	2	-102	-44	31
24	2	-99	-45	31
23	2	-96	-46	31
23	2	-93	-47	31
22	2	-90	-49	31
22	2	-87	-50	31
21	2	-84	-51	31
21	2	-81	-52	31
20	2	-78	-53	31
20	2	-75	-54	31
19	2	-72	-55	31
19	2	-69	-56	31
18	2	-66	-57	31
18	2	-63	-58	31
17	2	-60	-60	31
-1	5	14	-130	31
27	-11	80	-435	31
-1	-16	9	-331	31
21	-11	-19	327	31
40	2	0	198	31
-6	34	-35	222	31
12	51	5	24	31
-6	23	153	-59	31
-17	-4	191	418	31
-11	-24	138	178	31
-24	-32	-1	-334	31
-7	-2	-97	-732	31
-16	4	-92	-244	31
-34	-1	-203	110	31
-52	9	-245	200	31
-49	0	-141	766	31
-20	-9	-108	909	31
6	66	-90	828	31
21	237	166	218	31
-7	275	460	-1488	31
-60	160	578	-2072	31
-79	-8	333	-206	31
-14	-279	-64	331	31
42	-394	-232	239	31
70	-230	-264	599	31
46	-115	-188	-13	31
-2	-88	-125	-146	31
20	-54	-1	183	31
-23	-91	-67	750	31
-45	-43	-70	259	31
-6	50	53	-115	31
59	64	-39	39	31
149	82	-72	-338	31
42	67	-69	-127	31
-37	49	-40	42	31
56	12	-62	115	31
58	-64	54	124	31
5	-111	156	-437	31
-57	-90	79	-476	31
-84	-32	-42	301	31
-48	20	12	120	31
36	51	92	-145	31
49	30	-69	37	31
-12	10	-83	214	31
0	1	-205	292	31
17	16	-116	11	31
75	35	176	61	31
47	30	285	1	31
-27	32	237	-269	31
-32	20	86	-688	31
-90	24	-32	-302	31
-112	22	-345	3	31
-131	32	-346	37	31
-97	57	-129	399	31
-2	50	-31	143	31
62	36	127	-24	31
87	-9	170	-289	31
76	-24	127	-424	31
191	-7	89	191	31
156	-12	92	951	31
-16	5	-5	1009	31
6	13	-59	528	31
-39	6	-50	-448	31
-80	17	-21	-615	31
-91	7	56	441	31
-106	-7	-47	-194	31
-46	-1	-111	-456	31
-34	1	-105	-439	31
30	-2	-47	-914	31
57	0	-69	59	31
18	2	-150	749	31
1	-4	29	672	31
1	2	24	5	31
17	-2	4	-408	31
11	5	155	-246	31
21	20	62	-36	31
-2	12	175	72	31
-28	7	216	-45	31
-55	-26	76	-390	31
-124	-8	77	-132	31
-140	77	-49	130	31
-121	130	-64	-249	31
-117	222	-54	103	31
-99	318	-93	151	31
0	196	-75	7	31
83	-83	-4	-79	31
108	-354	132	-97	31
150	-603	111	193	31
171	-529	43	186	31
199	-150	93	488	31
156	-43	-86	210	31
59	-37	-293	-329	31
51	48	-189	-551	31
29	32	-115	-287	31
25	68	-21	433	31
27	44	-62	343	31
-60	29	-148	209	31
-90	36	-19	263	31
-94	-10	41	180	31
-95	7	128	92	31
-61	-6	141	-272	31
-70	25	69	-334	31
-11	146	46	-211	31
21	246	11	-72	31
-100	243	24	168	31
-175	153	46	-24	31
-91	-11	2	214	31
77	-184	3	318	31
139	-203	52	-143	31
139	-203	52	-143	31
137	-200	53	-145	31
135	-197	55	-148	31
133	-194	57	-151	31
131	-191	59	-153	31
129	-188	61	-156	31
126	-185	63	-159	31
124	-182	65	-162	31
122	-179	67	-164	31
120	-176	69	-167	31
118	-173	71	-170	31
116	-170	73	-173	31
113	-166	75	-175	31
111	-163	77	-178	31
109	-160	79	-181	31
107	-157	81	-184	31
105	-154	82	-186	31
103	-151	84	-189	31
100	-148	86	-192	31
98	-145	88	-194	31
96	-142	90	-197	31
94	-139	92	-200	31
92	-136	94	-203	31
90	-133	96	-205	31
87	-129	98	-208	31
85	-126	100	-211	31
83	-123	102	-214	31
81	-120	104	-216	31
79	-117	106	-219	31
77	-114	108	-222	31
74	-111	110	-225	31
72	-108	111	-227	31
70	-105	113	-230	31
68	-102	115	-233	31
66	-99	117	-235	31
64	-96	119	-238	31
61	-92	121	-241	31
59	-89	123	-244	31
57	-86	125	-246	31
55	-83	127	-249	31
53	-80	129	-252	31
51	-77	131	-255	31
48	-74	133	-257	31
46	-71	135	-260	31
44	-68	137	-263	31
42	-65	139	-266	31
40	-62	140	-268	31
38	-59	142	-271	31
35	-55	144	-274	31
33	-52	146	-276	31
31	-49	148	-279	31
29	-46	150	-282	31
27	-43	152	-285	31
25	-40	154	-287	31
22	-37	156	-290	31
20	-34	158	-293	31
18	-31	160	-296	31
16	-28	162	-298	31
14	-25	164	-301	31
12	-22	166	-304	31
9	-18	168	-307	31
24	-7	-68	-286	31
59	3	-335	356	31
44	-2	-264	522	31
16	24	158	-189	31
-11	13	370	-761	31
-25	16	128	-206	31
-62	40	-42	-726	31
-92	47	-195	-479	31
-101	63	-170	295	31
-94	44	37	24	31
-84	13	96	474	31
-31	-19	152	275	31
63	-39	95	246	31
46	-55	8	398	31
14	-70	-69	-38	31
108	-28	-54	170	31
143	-51	19	417	31
101	-73	-71	387	31
100	0	-90	286	31
54	3	-27	-101	31
-64	-9	29	-347	31
-105	5	32	-353	31
-80	18	1	-79	31
-34	44	-22	173	31
29	17	-113	383	31
14	-4	-59	796	31
6	11	74	780	31
59	20	48	621	31
54	21	14	-47	31
-60	6	36	-1850	31
-95	-1	108	-1936	31
-69	-6	141	9	31
-49	4	-110	188	31
93	20	-185	29	31
100	10	-1	66	31
9	7	-8	-527	31
-14	6	-33	-219	31
-44	-6	-79	208	31
-42	-9	-39	189	31
-47	-3	59	-36	31
11	19	42	318	31
78	39	74	622	31
25	32	140	390	31
-20	45	176	343	31
-36	84	47	-21	31
-93	125	-83	-340	31
-92	130	-62	-430	31
-65	75	-113	-408	31
-61	34	-143	181	31
-61	34	-143	181	31
-61	32	-143	178	31
-60	30	-143	174	31
-60	27	-143	170	31
-59	25	-143	166	31
-59	23	-143	162	31
-58	20	-143	158	31
-58	18	-143	154	31
-57	15	-143	151	31
-57	13	-143	147	31
-56	11	-143	143	31
-56	8	-143	139	31
-55	6	-143	135	31
-55	3	-143	131	31
-54	1	-143	127	31
-54	-1	-143	124	31
-53	-4	-143	120	31
-53	-6	-143	116	31
-52	-8	-143	112	31
-51	-11	-143	108	31
-51	-13	-143	104	31
-50	-16	-143	100	31
-50	-18	-143	97	31
-49	-20	-143	93	31
-49	-23	-144	89	31
-48	-25	-144	85	31
-48	-28	-144	81	31
-47	-30	-144	77	31
-47	-32	-144	73	31
-46	-35	-144	70	31
-46	-37	-144	66	31
-45	-39	-144	62	31
-45	-42	-144	58	31
-44	-44	-144	54	31
-44	-47	-144	50	31
-43	-49	-144	46	31
-42	-51	-144	43	31
-42	-54	-144	39	31
-41	-56	-144	35	31
-41	-59	-144	31	31
-40	-61	-144	27	31
-40	-63	-144	23	31
-39	-66	-144	19	31
-39	-68	-144	16	31
-38	-70	-144	12	31
-38	-73	-144	8	31
-37	-75	-144	4	31
-37	-78	-145	0	31
-36	-80	-145	-4	31
-36	-82	-145	-8	31
-35	-85	-145	-11	31
-35	-87	-145	-15	31
-34	-90	-145	-19	31
-33	-92	-145	-23	31
-33	-94	-145	-27	31
-32	-97	-145	-31	31
-32	-99	-145	-35	31
-31	-101	-145	-38	31
-31	-104	-145	-42	31
-30	-106	-145	-46	31
-30	-109	-145	-50	31
-29	-111	-145	-54	31
-29	-113	-145	-58	31
-28	-116	-145	-62	31
-28	-118	-145	-65	31
-27	-121	-145	-69	31
-27	-123	-145	-73	31
-26	-125	-145	-77	31
-26	-128	-145	-81	31
-25	-130	-145	-85	31
-24	-133	-146	-89	31
1	-274	-191	-127	31
23	-257	-166	-163	31
15	-60	-54	-130	31
-1	38	-54	290	31
-5	82	22	93	31
-27	187	29	-70	31
-22	200	-138	-47	31
-22	189	-173	133	31
-62	112	-116	439	31
-61	-3	31	334	31
-54	-101	-60	590	31
-65	-81	-49	551	31
-102	193	167	-166	31
-176	513	219	-706	31
-199	752	143	-804	31
-131	637	29	-497	31
-21	80	69	-46	31
124	-527	29	65	31
269	-881	-59	-526	31
276	-654	-1	-398	31
216	-316	16	247	31
178	-275	-37	415	31
80	4	-42	420	31
-24	308	31	74	31
-81	320	90	-281	31
-108	75	20	-153	31
-95	-393	-107	129	31
-13	-640	-93	-151	31
105	-416	98	-471	31
132	-136	238	-214	31
110	-27	215	224	31
138	79	46	417	31
14	105	-124	550	31
-72	143	-190	634	31
-17	167	-234	474	31
-63	146	-136	419	31
-48	161	-161	350	31
-66	121	-119	-411	31
-103	133	203	-1336	31
-138	177	176	-936	31
-189	264	-18	-400	31
-137	330	-118	-68	31
-114	266	-159	204	31
-72	18	-45	-49	31
-9	-273	70	-150	31
68	-181	142	-52	31
145	109	121	307	31
112	190	8	500	31
54	88	-77	371	31
-4	-78	-70	347	31
-24	-183	-12	629	31
1	-123	48	486	31
-6	61	162	-291	31
-12	122	232	-826	31
-17	-118	110	-228	31
37	-342	-140	507	31
88	-258	-256	-41	31
84	-7	-95	-569	31
14	284	91	-444	31
-114	616	196	458	31
-167	750	136	773	31
-184	442	-123	-85	31
-135	-111	-251	-206	31
-42	-690	-204	127	31
72	-937	-58	-157	31
171	-632	59	-428	31
183	-305	-12	-484	31
208	-209	-54	-682	31
156	-119	-44	62	31
63	-24	39	95	31
29	27	298	-289	31
-21	55	320	9	31
-85	77	84	-338	31
-129	143	-32	115	31
-72	212	1	610	31
-2	298	9	731	31
-62	392	-87	398	31
-95	426	-5	-94	31
-64	381	103	133	31
-62	106	132	181	31
-37	-198	9	430	31
-3	-191	-171	384	31
22	26	-276	24	31
-21	362	-419	-349	31
-123	724	-178	-724	31
-193	794	24	-632	31
-194	414	19	732	31
-65	-188	-123	1368	31
107	-842	-252	430	31
178	-1129	-2	178	31
130	-690	166	-741	31
67	64	462	-1828	31
34	371	526	-1330	31
-29	-182	214	-311	31
-14	-790	-17	476	31
158	-859	-262	636	31
308	-573	-295	396	31
293	-173	-328	295	31
194	-128	-234	-55	31
80	-116	71	-649	31
53	-14	70	211	31
42	44	-25	1199	31
-67	194	-100	269	31
-140	188	-49	-755	31
-196	224	409	-1055	31
-189	236	611	191	31
-52	217	474	468	31
22	240	314	-503	31
-39	193	-115	-62	31
-47	234	-404	114	31
24	228	-231	645	31
14	197	-7	304	31
-28	139	-186	-140	31
-15	84	-160	65	31
-8	81	70	-219	31
-40	55	89	-536	31
-35	81	153	-502	31
-65	115	9	317	31
-103	146	-181	94	31
-125	98	-171	70	31
-124	-9	-66	216	31
-62	-80	0	80	31
-46	-98	-77	250	31
20	1	-179	194	31
135	34	-119	351	31
158	-3	269	60	31
19	-11	571	-187	31
-66	-41	341	-173	31
7	-1	-14	6	31
54	15	-346	-133	31
47	-17	-670	-254	31
-2	-18	-500	-123	31
39	-31	-101	238	31
21	-9	82	510	31
-42	38	92	1	31
-2	46	58	100	31
-27	9	150	215	31
-49	-39	97	271	31
-71	-69	-47	371	31
-40	-20	-127	233	31
1	111	-62	31	31
-7	174	58	-552	31
94	145	100	-606	31
52	21	287	-882	31
-34	-203	469	-639	31
26	-305	426	192	31
10	-183	93	239	31
19	-64	-219	402	31
28	-50	-388	372	31
36	-6	-275	299	31
71	36	-27	226	31
12	114	76	-469	31
-11	198	161	-995	31
-48	214	-54	-463	31
-80	250	-147	538	31
-62	146	-145	609	31
-76	-119	-176	-67	31
-59	-290	80	-337	31
-25	-214	166	-98	31
-5	-11	153	13	31
-1	59	183	332	31
17	-134	37	763	31
37	-260	-110	289	31
54	-174	-82	-567	31
106	-206	0	-617	31
101	-181	-21	-377	31
16	-19	-79	-257	31
-76	151	-135	247	31
-115	344	-145	643	31
-95	264	-52	261	31
-62	-11	42	-163	31
22	-257	89	-44	31
115	-327	113	-141	31
145	-180	206	-80	31
100	-176	226	-53	31
74	-189	103	-97	31
58	-64	-32	455	31
-7	160	-234	342	31
-24	437	-151	79	31
-120	659	-17	401	31
-226	946	-1	460	31
-274	1049	110	-127	31
-267	661	140	-755	31
-128	-80	249	-218	31
12	-827	132	-108	31
122	-930	-128	-393	31
262	-334	-308	-139	31
282	-37	-472	101	31
68	-345	-341	343	31
10	-597	-94	42	31
76	-432	29	133	31
75	-307	48	-70	31
125	-612	36	-176	31
118	-641	-43	155	31
125	-198	53	-479	31
75	206	403	-287	31
-89	417	373	-28	31
-127	419	90	335	31
-51	201	-85	853	31
-26	-92	-371	502	31
-11	-93	-446	438	31
56	20	-127	-368	31
-11	319	194	-1083	31
-191	970	358	-983	31
-278	1335	270	-461	31
-327	1629	82	435	31
-479	1866	-1	757	31
-491	1057	-152	761	31
-280	208	-115	-6	31
-131	-11	108	-847	31
124	-986	243	-529	31
393	-1181	339	-320	31
470	-1143	307	16	31
464	-2126	97	307	31
426	-1740	-161	297	31
458	-666	-271	661	31
330	-28	-292	571	31
50	779	-227	118	31
-155	578	-219	7	31
-199	424	-340	-135	31
-80	-87	-133	-652	31
58	-568	-4	-714	31
133	95	35	-383	31
-22	1189	258	709	31
-247	1248	124	1203	31
-307	654	297	229	31
-246	-52	664	-113	31
-2	-971	336	-844	31
161	-373	43	-705	31
54	-185	-466	191	31
-48	-594	-927	-355	31
-24	49	-360	-24	31
22	-620	-41	341	31
79	-978	-102	651	31
188	196	-69	1089	31
26	1278	-109	319	31
-273	1927	13	-369	31
-332	916	90	-1401	31
-262	-785	151	-815	31
-38	-1893	201	510	31
189	-1506	257	175	31
335	-732	191	198	31
398	-1387	214	259	31
277	-934	323	-219	31
193	49	214	-458	31
88	429	167	175	31
-66	771	-69	908	31
-147	515	-474	837	31
-194	348	-513	-428	31
-181	59	68	-1259	31
-154	48	431	-47	31
-70	269	175	-4	31
-32	182	-79	-118	31
-85	325	-257	332	31
-155	778	-296	-362	31
-411	1877	-153	-254	31
-619	2055	-34	-424	31
-561	1162	-118	-239	31
-314	-171	-74	352	31
187	-1438	136	350	31
584	-972	224	506	31
545	-433	114	387	31
293	-1622	5	-46	31
287	-1850	51	-287	31
467	-1062	137	-76	31
345	-223	188	-129	31
86	251	14	-57	31
-151	474	-294	163	31
-262	546	-386	273	31
-182	148	-51	550	31
-126	-205	27	502	31
-79	-16	-242	-9	31
-22	589	-251	-300	31
-9	485	-34	-580	31
-88	148	203	-107	31
-9	131	227	665	31
166	242	267	-107	31
156	222	224	-95	31
34	160	67	-24	31
-85	480	62	-331	31
-210	692	-67	352	31
-306	656	-2	597	31
-237	-195	143	494	31
-95	-1398	147	-318	31
144	-1751	290	-1768	31
324	-504	275	-1183	31
242	996	-136	345	31
24	1110	-569	-101	31
-193	1092	-531	-204	31
-279	646	-430	309	31
-222	-85	-155	78	31
-38	-373	151	224	31
181	-1122	278	274	31
354	-998	561	41	31
338	377	271	319	31
155	773	-267	568	31
-113	512	-382	330	31
-235	271	-378	-177	31
-57	-438	-128	-969	31
25	-583	280	-538	31
22	-32	323	663	31
-156	1031	102	469	31
-591	2049	-176	250	31
-734	1467	-382	70	31
-546	-670	-140	-54	31
-63	-2179	138	519	31
591	-1906	283	698	31
749	-350	243	4	31
501	269	196	-424	31
289	40	212	275	31
243	-1487	-204	-82	31
279	-1766	-381	-1033	31
246	-773	-12	-1735	31
214	-489	411	-750	31
99	19	101	1186	31
8	8	-3	832	31
-32	-341	238	1471	31
22	29	123	787	31
54	538	476	-1502	31
-163	846	403	-1167	31
-226	390	46	-906	31
-145	90	-478	-239	31
-27	102	-755	-75	31
7	345	-413	-73	31
-125	659	-227	123	31
-175	517	-29	-159	31
-195	685	20	18	31
-191	979	170	128	31
-194	1438	218	547	31
-286	1696	-151	664	31
-353	1228	-471	576	31
-275	206	-341	-147	31
-35	-967	93	-320	31
241	-1267	208	-73	31
281	-1182	10	37	31
160	-201	51	191	31
-55	1692	24	432	31
-334	1891	-304	512	31
-333	480	-292	32	31
-130	-1745	-44	20	31
251	-2266	181	102	31
777	-1467	344	14	31
802	-254	49	-686	31
216	822	-193	-550	31
-165	1287	84	242	31
-144	928	311	179	31
-145	714	259	301	31
-194	588	160	-32	31
-241	1387	328	-598	31
-241	1387	328	-598	31
-236	1367	324	-599	31
-230	1347	320	-601	31
-225	1327	315	-603	31
-219	1307	311	-605	31
-214	1287	307	-607	31
-208	1267	302	-609	31
-203	1247	298	-611	31
-197	1227	293	-613	31
-191	1207	289	-615	31
-186	1187	285	-617	31
-180	1167	280	-619	31
-175	1147	276	-621	31
-169	1127	271	-623	31
-164	1107	267	-625	31
-158	1087	263	-627	31
-153	1067	258	-629	31
-147	1047	254	-631	31
-141	1027	250	-633	31
-136	1007	245	-635	31
-130	987	241	-637	31
-125	967	236	-639	31
-119	947	232	-641	31
-114	927	228	-643	31
-108	907	223	-645	31
-103	887	219	-647	31
-97	867	214	-649	31
-91	847	210	-651	31
-86	827	206	-653	31
-80	807	201	-655	31
-75	787	197	-657	31
-69	767	193	-659	31
-64	747	188	-661	31
-58	727	184	-663	31
-53	707	179	-665	31
-47	687	175	-667	31
-41	667	171	-669	31
-36	647	166	-671	31
-30	627	162	-673	31
-25	607	157	-675	31
-19	587	153	-677	31
-14	567	149	-679	31
-8	547	144	-681	31
-3	527	140	-683	31
3	507	136	-685	31
9	487	131	-687	31
14	467	127	-689	31
20	447	122	-691	31
25	427	118	-693	31
31	407	114	-695	31
36	387	109	-697	31
42	367	105	-699	31
47	347	100	-701	31
53	327	96	-703	31
59	307	92	-705	31
64	287	87	-707	31
70	267	83	-709	31
75	247	79	-711	31
81	227	74	-713	31
86	207	70	-715	31
92	187	65	-717	31
97	167	61	-719	31
103	147	57	-721	31
109	127	52	-723	31
114	107	48	-725	31
120	87	43	-727	31
125	67	39	-729	31
131	47	35	-731	31
136	27	30	-733	31
142	7	26	-735	31
148	-14	21	-737	31
51	105	252	-645	31
-111	256	313	7	31
-91	215	44	805	31
-131	356	-31	733	31
-164	217	-104	-700	31
-165	226	59	-739	31
-185	169	60	264	31
-108	157	80	648	31
-62	165	78	188	31
-33	168	-37	-213	31
69	239	60	474	31
111	178	-195	1085	31
64	229	-285	1489	31
32	247	-28	633	31
-62	290	486	-992	31
-65	150	840	-1625	31
-66	-55	552	-507	31
-127	-100	136	121	31
-83	-76	-262	-74	31
-1	104	-533	-340	31
76	100	-771	-684	31
-22	8	-673	-290	31
-124	-9	-278	22	31
-126	-31	-66	575	31
-39	-34	315	442	31
2	-22	315	-218	31
-34	105	123	-458	31
97	186	-216	135	31
252	273	-646	600	31
321	351	-350	580	31
222	179	63	512	31
64	-173	168	-570	31
-60	-750	6	-118	31
-26	-613	-80	193	31
132	314	-53	71	31
-23	721	31	79	31
-466	691	137	115	31
-568	-55	175	1509	31
-207	-1016	237	-411	31
-207	-1016	237	-411	31
-208	-1001	234	-394	31
-210	-986	230	-377	31
-212	-970	226	-360	31
-213	-955	223	-343	31
-215	-939	219	-326	31
-217	-924	215	-309	31
-218	-909	212	-292	31
-220	-893	208	-275	31
-222	-878	204	-258	31
-223	-862	201	-241	31
-225	-847	197	-224	31
-227	-832	193	-207	31
-228	-816	190	-190	31
-230	-801	186	-173	31
-232	-785	182	-156	31
-233	-770	179	-139	31
-235	-755	175	-122	31
-237	-739	171	-105	31
-238	-724	168	-88	31
-240	-708	164	-71	31
-242	-693	160	-54	31
-243	-678	156	-37	31
-245	-662	153	-20	31
-247	-647	149	-3	31
-248	-631	145	14	31
-250	-616	142	31	31
-252	-601	138	48	31
-253	-585	134	65	31
-255	-570	131	82	31
-257	-554	127	99	31
-258	-539	123	116	31
-260	-524	120	133	31
-262	-508	116	150	31
-263	-493	112	167	31
-265	-477	109	184	31
-267	-462	105	201	31
-268	-447	101	218	31
-270	-431	98	235	31
-272	-416	94	252	31
-273	-400	90	269	31
-275	-385	86	286	31
-277	-370	83	303	31
-278	-354	79	320	31
-280	-339	75	337	31
-282	-323	72	354	31
-283	-308	68	371	31
-285	-293	64	388	31
-287	-277	61	405	31
-288	-262	57	422	31
-290	-246	53	439	31
-292	-231	50	456	31
-293	-216	46	473	31
-295	-200	42	490	31
-297	-185	39	507	31
-298	-169	35	524	31
-300	-154	31	541	31
-302	-139	28	558	31
-303	-123	24	575	31
-305	-108	20	592	31
-307	-92	16	609	31
-365	142	-272	1001	31
-249	256	-482	549	31
120	153	-277	-636	31
110	-114	141	-1184	31
112	-505	388	-1034	31
360	-715	265	-138	31
748	-454	73	22	31
449	64	-134	39	31
72	683	-275	-50	31
229	492	-344	-334	31
-145	9	-228	74	31
-86	-340	181	36	31
126	-345	360	76	31
-42	-77	418	-39	31
-55	-178	196	-7	31
-152	-21	-186	163	31
-62	103	-24	59	31
-38	277	201	9	31
26	537	-175	2	31
39	474	-416	92	31
-123	297	2	55	31
-127	-101	274	106	31
-218	-237	60	15	31
-287	144	12	55	31
-150	371	211	28	31
-50	262	200	-3	31
-36	89	365	49	31
-82	27	109	64	31
-70	-57	-441	239	31
198	-399	-356	99	31
253	-9	-297	19	31
24	976	-281	-9	31
-192	1133	-101	-103	31
-325	261	219	-209	31
-99	-1195	186	-259	31
337	-1790	24	-151	31
573	-1170	138	7	31
330	-586	-9	143	31
72	-156	-146	137	31
45	394	-20	-7	31
-119	710	-24	-36	31
-122	427	-429	174	31
-7	-220	-195	36	31
79	-563	347	-23	31
-19	-207	249	64	31
-46	154	7	-159	31
21	360	35	-257	31
-182	872	190	-79	31
-197	849	13	-31	31
-224	305	-192	-81	31
-224	-145	-261	165	31
-136	-367	-123	202	31
-126	-44	170	-4	31
-87	6	130	-70	31
-13	-495	-189	-54	31
155	-574	-16	110	31
222	-435	280	300	31
336	-216	188	427	31
249	67	212	132	31
31	72	110	-393	31
-92	184	-158	-359	31
-262	371	-284	-267	31
-215	696	-87	-211	31
-222	1192	-16	41	31
-246	1152	-70	5	31
-147	339	13	-143	31
46	-678	-60	32	31
294	-1139	2	122	31
293	-761	39	19	31
161	-45	48	92	31
-64	917	242	77	31
-295	1616	461	59	31
-398	676	307	31	31
-264	-1158	-120	70	31
264	-2131	-362	150	31
622	-1615	-373	271	31
471	-497	-308	284	31
113	-145	-151	-143	31
-20	167	151	-537	31
-67	216	86	-277	31
-219	299	-249	209	31
39	421	-146	34	31
166	237	280	14	31
54	92	484	130	31
128	12	368	-77	31
-14	252	5	-161	31
-156	279	-302	-147	31
-247	122	-457	13	31
-305	21	-419	127	31
-183	-93	-32	145	31
-82	72	248	114	31
11	173	213	60	31
187	255	356	-166	31
258	266	338	-128	31
144	-24	-93	157	31
60	-373	-215	-32	31
29	-340	-162	-237	31
19	-88	-66	-135	31
26	118	77	59	31
-68	787	93	-4	31
-119	1429	168	-84	31
-81	1195	54	-17	31
-188	-37	-143	228	31
-160	-1477	-146	391	31
-5	-1831	-144	-36	31
-42	-1048	-39	-190	31
-14	-384	32	-77	31
20	-43	112	-12	31
-65	328	87	-21	31
-65	328	87	-21	31
-63	315	88	-19	31
-61	302	90	-17	31
-58	288	92	-15	31
-56	275	94	-13	31
-53	261	96	-10	31
-51	248	98	-8	31
-48	235	99	-6	31
-46	221	101	-4	31
-43	208	103	-1	31
-41	194	105	1	31
-38	181	107	3	31
-36	167	109	5	31
-33	154	111	8	31
-31	141	112	10	31
-28	127	114	12	31
-26	114	116	14	31
-24	100	118	16	31
-21	87	120	19	31
-19	74	122	21	31
-16	60	124	23	31
-14	47	125	25	31
-11	33	127	28	31
-9	20	129	30	31
-6	6	131	32	31
-4	-7	133	34	31
-1	-20	135	37	31
1	-34	136	39	31
4	-47	138	41	31
6	-61	140	43	31
9	-74	142	46	31
11	-87	144	48	31
13	-101	146	50	31
16	-114	148	52	31
18	-128	149	54	31
21	-141	151	57	31
23	-155	153	59	31
26	-168	155	61	31
28	-181	157	63	31
31	-195	159	66	31
33	-208	161	68	31
36	-222	162	70	31
38	-235	164	72	31
41	-248	166	75	31
43	-262	168	77	31
46	-275	170	79	31
48	-289	172	81	31
50	-302	173	83	31
53	-316	175	86	31
55	-329	177	88	31
58	-342	179	90	31
60	-356	181	92	31
63	-369	183	95	31
65	-383	185	97	31
68	-396	186	99	31
70	-409	188	101	31
73	-423	190	104	31
75	-436	192	106	31
78	-450	194	108	31
80	-463	196	110	31
83	-477	198	113	31
31	-131	-56	155	31
-31	-552	-148	208	31
55	-1180	-129	290	31
224	-1046	6	130	31
219	-414	281	-136	31
52	-140	88	-628	31
-87	-256	-17	-530	31
-11	59	-4	330	31
117	272	-45	197	31
74	272	19	61	31
0	350	-104	-102	31
-141	407	-118	-344	31
-310	801	-27	170	31
-401	1147	78	256	31
-349	840	52	-70	31
-238	-168	-138	-241	31
-67	-1076	-177	69	31
377	-1059	-120	294	31
613	-543	25	370	31
434	-232	147	-122	31
240	-102	112	-357	31
60	-86	140	51	31
-92	-77	-3	-16	31
-98	94	-237	308	31
-71	152	-114	465	31
-139	169	77	132	31
-112	146	269	-415	31
-11	73	285	-689	31
-2	91	12	-2	31
135	128	-116	456	31
175	261	79	89	31
-113	401	295	-412	31
-180	486	102	-203	31
-121	350	-208	-87	31
-98	-36	-250	-276	31
-59	-373	-163	-33	31
-93	-371	-89	-56	31
41	-143	56	4	31
86	-39	252	67	31
86	-39	252	67	31
83	-33	249	67	31
79	-26	245	67	31
75	-19	241	68	31
71	-12	237	68	31
67	-5	233	69	31
63	2	230	69	31
59	9	226	70	31
55	16	222	70	31
51	23	218	71	31
47	30	214	71	31
43	37	211	72	31
39	44	207	72	31
35	50	203	73	31
31	57	199	73	31
27	64	195	74	31
24	71	192	74	31
20	78	188	74	31
16	85	184	75	31
12	92	180	75	31
8	99	176	76	31
4	106	173	76	31
0	113	169	77	31
-4	120	165	77	31
-8	127	161	78	31
-12	133	157	78	31
-16	140	154	79	31
-20	147	150	79	31
-24	154	146	80	31
-28	161	142	80	31
-32	168	138	81	31
-35	175	135	81	31
-39	182	131	81	31
-43	189	127	82	31
-47	196	123	82	31
-51	203	119	83	31
-55	210	116	83	31
-59	216	112	84	31
-63	223	108	84	31
-67	230	104	85	31
-71	237	100	85	31
-75	244	97	86	31
-79	251	93	86	31
-83	258	89	87	31
-87	265	85	87	31
-91	272	81	88	31
-94	279	78	88	31
-98	286	74	88	31
-102	293	70	89	31
-106	299	66	89	31
-110	306	62	90	31
-114	313	59	90	31
-118	320	55	91	31
-122	327	51	91	31
-126	334	47	92	31
-130	341	43	92	31
-134	348	40	93	31
-138	355	36	93	31
-142	362	32	94	31
-146	369	28	94	31
-150	376	24	95	31
-156	210	36	37	31
-189	-127	-49	103	31
-93	-440	-102	23	31
54	-375	-2	-55	31
179	-55	163	73	31
70	-1	266	-24	31
-103	-21	98	-218	31
-183	-1	-148	-127	31
-228	-31	-150	-23	31
-98	52	-131	-90	31
8	160	-252	170	31
128	209	-252	485	31
313	95	78	615	31
51	-59	218	221	31
-279	-60	175	-633	31
-169	74	118	-423	31
-83	126	17	-119	31
-199	37	41	-103	31
-171	-59	-27	102	31
91	-50	-7	-4	31
559	145	31	14	31
863	24	-12	-7	31
407	-205	32	37	31
130	-273	-24	-51	31
76	-282	-120	-55	31
-67	-48	-47	140	31
1	36	37	-55	31
-199	39	73	-334	31
-211	80	110	-207	31
-126	67	-55	315	31
-40	107	-179	618	31
17	67	-83	252	31
-56	-50	0	137	31
-161	-108	20	208	31
-322	26	-95	-643	31
-155	115	-127	-953	31
-49	16	64	-443	31
77	-121	115	-62	31
255	-160	-9	96	31
216	-27	-19	151	31
-22	38	45	160	31
-140	79	102	27	31
-75	118	92	82	31
-133	95	-23	26	31
47	108	-16	-13	31
111	22	48	42	31
14	-26	-41	201	31
35	17	-54	171	31
50	92	51	12	31
12	104	72	48	31
-77	-101	120	-22	31
-135	-168	81	26	31
-134	-92	-70	12	31
-72	7	-130	10	31
-117	197	-93	104	31
37	203	-40	283	31
175	2	-82	299	31
120	-236	-89	-4	31
97	-375	39	-246	31
-6	-300	184	-517	31
-93	-125	83	-187	31
-173	-58	-118	315	31
-65	-4	-79	259	31
-7	39	97	229	31
30	-2	85	-146	31
279	55	-80	-317	31
267	112	-12	-46	31
-4	105	41	-5	31
-79	74	38	40	31
-37	31	53	-14	31
-36	27	-77	-16	31
0	80	-130	-42	31
-7	244	-82	-139	31
1	388	-42	-15	31
-149	345	-16	37	31
-289	95	-2	92	31
-207	-292	-73	110	31
-128	-497	-6	17	31
65	-222	201	33	31
135	168	242	41	31
-5	430	14	101	31
-98	519	-285	72	31
-7	121	-132	-65	31
106	-429	163	-84	31
117	-714	80	-86	31
311	-686	83	-140	31
357	-244	59	-89	31
189	109	-21	24	31
-23	128	-62	74	31
-183	75	-175	108	31
-197	-116	-27	-79	31
-219	-127	55	-166	31
-277	-13	50	-57	31
-314	14	8	-38	31
-88	142	42	85	31
255	52	113	69	31
545	-27	7	-18	31
408	69	26	-8	31
115	12	106	14	31
120	62	-6	103	31
-27	90	-227	145	31
-53	72	-190	140	31
-54	78	-84	-55	31
-107	10	-51	-228	31
-117	50	103	-165	31
-158	63	111	-72	31
-69	55	-132	15	31
-77	64	-318	31	31
-90	29	-267	-10	31
-17	10	-5	41	31
109	1	375	57	31
137	47	462	140	31
31	54	191	202	31
-11	14	87	-107	31
-54	-3	105	-192	31
-86	-2	-21	-32	31
-77	27	-148	103	31
-67	13	-175	112	31
-71	-12	-112	-142	31
-92	-11	52	-209	31
-83	-24	101	-98	31
-109	-6	12	143	31
-152	32	26	166	31
-65	8	8	6	31
104	-47	-52	-14	31
52	-72	103	24	31
-107	-35	132	138	31
47	35	-119	57	31
121	-11	-227	74	31
41	-87	-153	143	31
135	-43	-94	142	31
199	2	-140	223	31
48	9	49	-13	31
33	-17	195	-284	31
182	-30	39	-196	31
47	1	12	-18	31
-12	18	-60	176	31
-39	50	32	85	31
-76	73	395	-257	31
-47	47	340	-294	31
-100	7	-116	-234	31
-143	-28	-284	-112	31
-228	-34	-206	165	31
-212	41	-125	156	31
-122	212	-69	63	31
44	280	-26	-6	31
154	145	55	-86	31
155	-80	97	-90	31
167	-323	77	-107	31
49	-368	0	34	31
58	-254	-42	58	31
120	-135	26	-9	31
83	-62	122	26	31
137	-39	14	74	31
59	95	-201	191	31
-161	348	-351	55	31
-193	512	-295	-155	31
-268	338	-47	-115	31
-378	-94	164	-140	31
-143	-537	245	-82	31
79	-591	117	80	31
204	-181	46	48	31
305	49	0	208	31
282	60	-79	233	31
69	107	35	-2	31
-118	76	184	4	31
-131	61	154	-89	31
-341	74	-23	-194	31
-393	100	-47	-199	31
-163	71	34	-31	31
416	-52	68	135	31
759	-111	119	55	31
302	-153	22	1	31
100	-102	-178	-88	31
-84	36	-295	10	31
-236	80	-232	-29	31
-97	98	4	-145	31
-92	65	53	187	31
96	64	46	451	31
104	102	52	323	31
89	-29	56	166	31
79	-143	129	119	31
-38	-86	46	-254	31
16	14	-5	-715	31
-5	181	34	-438	31
-232	283	113	82	31
-433	247	106	213	31
-418	117	10	374	31
-361	-4	-87	334	31
18	-12	-193	99	31
316	-191	-128	-155	31
177	-219	-1	-191	31
21	-45	37	-241	31
-105	-120	4	-292	31
26	-88	-22	-85	31
358	-73	18	-165	31
418	-214	64	131	31
378	-158	31	392	31
262	-50	39	140	31
139	37	107	95	31
69	82	60	46	31
-143	70	-68	27	31
-187	124	-29	-125	31
-304	110	126	-458	31
-353	61	82	-377	31
-204	66	-62	-112	31
-206	14	-175	46	31
-254	-1	-181	296	31
-258	32	-158	433	31
-92	54	-181	398	31
173	81	-80	190	31
241	-5	31	-207	31
295	-79	124	-565	31
300	-91	194	-409	31
-94	-85	150	-26	31
21	59	139	-31	31
188	8	133	320	31
-6	-24	-130	586	31
201	54	-345	806	31
54	-56	-243	653	31
-13	-34	-112	-2	31
17	-6	14	112	31
-134	44	72	-186	31
-39	108	175	-332	31
-92	37	351	-678	31
-64	21	367	-1030	31
-122	-19	243	-712	31
-234	-21	-127	-602	31
-248	14	-410	470	31
-302	32	-229	790	31
-258	55	-221	631	31
-148	41	-105	494	31
191	-12	238	-290	31
252	-63	328	-638	31
-106	62	294	-486	31
-95	216	-205	353	31
-2	85	-403	325	31
-183	-110	-105	-149	31
85	-178	79	-413	31
85	-178	79	-413	31
84	-174	75	-407	31
83	-170	70	-400	31
82	-166	65	-394	31
80	-162	60	-387	31
79	-158	55	-380	31
78	-154	50	-374	31
76	-150	45	-367	31
75	-146	41	-360	31
74	-142	36	-354	31
72	-138	31	-347	31
71	-134	26	-340	31
70	-130	21	-334	31
69	-126	16	-327	31
67	-122	11	-320	31
66	-117	6	-314	31
65	-113	2	-307	31
63	-109	-3	-300	31
62	-105	-8	-294	31
61	-101	-13	-287	31
59	-97	-18	-280	31
58	-93	-23	-274	31
57	-89	-28	-267	31
56	-85	-32	-261	31
54	-81	-37	-254	31
53	-77	-42	-247	31
52	-73	-47	-241	31
50	-69	-52	-234	31
49	-65	-57	-227	31
48	-61	-62	-221	31
46	-56	-67	-214	31
45	-52	-71	-207	31
44	-48	-76	-201	31
43	-44	-81	-194	31
41	-40	-86	-187	31
40	-36	-91	-181	31
39	-32	-96	-174	31
37	-28	-101	-167	31
36	-24	-105	-161	31
35	-20	-110	-154	31
33	-16	-115	-147	31
32	-12	-120	-141	31
31	-8	-125	-134	31
30	-4	-130	-128	31
28	0	-135	-121	31
27	5	-140	-114	31
26	9	-144	-108	31
24	13	-149	-101	31
23	17	-154	-94	31
22	21	-159	-88	31
20	25	-164	-81	31
19	29	-169	-74	31
18	33	-174	-68	31
17	37	-178	-61	31
15	41	-183	-54	31
14	45	-188	-48	31
13	49	-193	-41	31
11	53	-198	-34	31
10	57	-203	-28	31
9	61	-208	-21	31
7	66	-213	-14	31
-341	191	-97	876	31
-276	242	107	1047	31
-251	179	282	1089	31
39	69	45	485	31
350	-101	-113	-689	31
46	-227	61	-998	31
252	-100	-57	-453	31
472	-61	-284	267	31
352	-31	-405	85	31
137	83	-613	906	31
-28	71	-235	1548	31
-125	88	335	1085	31
-182	22	494	613	31
-191	-9	504	-490	31
-109	-14	596	-2323	31
-46	-42	532	-1962	31
-228	21	-13	-101	31
-420	67	-225	27	31
-396	119	-223	112	31
-224	113	-310	171	31
3	101	-261	-139	31
388	47	36	-404	31
512	-87	100	-117	31
32	-78	-258	665	31
-107	-22	-312	1075	31
36	-1	-295	1176	31
-224	55	-31	1015	31
-218	27	182	-15	31
-204	-31	68	-827	31
-215	-69	261	-1135	31
156	-33	242	-741	31
268	-26	54	90	31
135	-52	255	460	31
114	23	290	1199	31
67	-3	129	589	31
-125	35	-94	-406	31
-306	108	-61	-1690	31
-484	44	-83	-1960	31
-518	-67	-442	-735	31
-400	-137	-151	21	31
98	-2	192	545	31
815	88	203	569	31
741	51	-36	1045	31
239	165	-378	460	31
-120	290	-605	173	31
-169	55	-790	218	31
44	-340	-376	-201	31
-23	-461	92	115	31
181	-234	312	-145	31
252	2	540	-519	31
-97	73	676	-722	31
-29	159	615	-171	31
-7	115	234	622	31
-27	62	-275	487	31
246	84	-545	49	31
381	107	-473	-792	31
237	81	-298	-1174	31
-45	-87	354	-492	31
-132	-143	864	-224	31
-138	-128	626	-108	31
-368	-84	300	675	31
-201	129	137	1459	31
79	242	520	1539	31
-188	170	346	199	31
-365	123	-674	-1421	31
-305	6	-1026	-637	31
-176	-100	-1312	-46	31
-40	-74	-1180	-27	31
163	206	-267	403	31
342	540	549	-334	31
9	575	431	92	31
-183	364	-4	305	31
-77	-203	-147	217	31
-115	-790	-349	659	31
5	-1070	142	1016	31
229	-850	307	1207	31
307	-429	284	-328	31
386	-308	707	-1900	31
399	-79	1076	-2024	31
224	204	913	-769	31
12	216	-62	120	31
-342	96	-773	416	31
-343	-16	-1225	662	31
-145	21	-888	169	31
-67	186	95	462	31
38	199	400	1035	31
-1	146	236	1087	31
-145	315	19	368	31
-413	393	50	-898	31
-515	63	-70	-1890	31
-574	-238	-194	-1481	31
-376	-166	231	353	31
576	69	623	658	31
1098	121	734	578	31
304	-89	757	162	31
176	-36	289	-294	31
381	-1	-48	295	31
-99	-108	-18	540	31
343	135	-745	490	31
236	189	-1094	18	31
-251	143	-990	735	31
-49	58	-681	742	31
-241	-155	46	-459	31
-185	-127	45	-610	31
-81	1	37	-396	31
-145	247	79	-155	31
-140	258	193	-432	31
-210	-16	351	-291	31
-242	54	48	-27	31
-241	693	-114	-15	31
-61	1245	16	-1	31
45	781	318	-336	31
-133	-380	379	1	31
121	-1369	173	262	31
502	-1421	123	117	31
228	-805	708	296	31
133	-452	1201	648	31
186	-227	767	350	31
173	-137	155	-724	31
258	-72	-644	-1444	31
132	140	-1316	-230	31
-171	176	-1103	1281	31
-340	173	-687	575	31
-224	174	-80	199	31
-89	166	534	-443	31
57	297	331	-657	31
52	384	256	529	31
-72	343	39	370	31
-31	115	-307	367	31
-31	115	-307	367	31
-22	106	-303	358	31
-12	96	-298	349	31
-2	86	-294	340	31
7	77	-289	330	31
17	67	-285	321	31
27	57	-280	312	31
37	48	-276	303	31
46	38	-271	293	31
56	28	-267	284	31
66	18	-262	275	31
75	9	-258	266	31
85	-1	-253	256	31
95	-11	-249	247	31
105	-20	-244	238	31
114	-30	-240	228	31
124	-40	-235	219	31
134	-49	-231	210	31
143	-59	-226	201	31
153	-69	-222	191	31
163	-79	-217	182	31
173	-88	-213	173	31
182	-98	-208	164	31
192	-108	-204	154	31
202	-117	-199	145	31
211	-127	-195	136	31
221	-137	-190	127	31
231	-146	-186	117	31
241	-156	-181	108	31
250	-166	-177	99	31
260	-176	-172	89	31
270	-185	-168	80	31
279	-195	-163	71	31
289	-205	-159	62	31
299	-214	-154	52	31
309	-224	-150	43	31
318	-234	-145	34	31
328	-243	-141	25	31
338	-253	-136	15	31
347	-263	-132	6	31
357	-273	-127	-3	31
367	-282	-123	-12	31
377	-292	-118	-22	31
386	-302	-114	-31	31
396	-311	-109	-40	31
406	-321	-105	-50	31
415	-331	-100	-59	31
425	-340	-96	-68	31
435	-350	-91	-77	31
445	-360	-87	-87	31
454	-370	-82	-96	31
464	-379	-78	-105	31
474	-389	-73	-114	31
483	-399	-69	-124	31
493	-408	-64	-133	31
503	-418	-60	-142	31
513	-428	-55	-151	31
522	-437	-51	-161	31
532	-447	-46	-170	31
542	-457	-42	-179	31
552	-467	-37	-189	31
315	-303	-216	203	31
12	63	-350	459	31
14	145	-385	348	31
-67	97	-4	46	31
-90	-56	496	-486	31
11	-136	637	-657	31
-13	37	436	-309	31
-41	153	319	-153	31
-152	169	34	539	31
-163	242	-442	860	31
-192	348	-555	-129	31
-219	316	-303	-748	31
-267	234	-155	-165	31
-319	128	-204	750	31
-165	11	-426	1138	31
-34	-100	-295	423	31
148	-157	189	-679	31
311	-90	313	-746	31
183	65	357	-170	31
22	151	144	1	31
-17	72	-125	-68	31
-140	27	-170	59	31
-130	-65	-98	239	31
-3	-100	-42	252	31
36	-34	2	330	31
7	73	243	19	31
75	212	284	-286	31
110	111	22	-13	31
-2	19	-169	296	31
31	-52	-24	-320	31
-3	-97	-21	-493	31
-69	217	-84	-217	31
-86	499	37	100	31
-145	496	87	178	31
-180	371	60	-500	31
-191	-87	72	259	31
-125	-706	132	492	31
105	-776	79	-54	31
378	-538	133	-310	31
261	-354	211	-349	31
-1	-142	-57	158	31
-68	17	-232	90	31
-30	212	-332	110	31
-11	237	-352	256	31
-50	109	-214	144	31
-85	126	-49	-47	31
-177	209	254	289	31
-119	96	102	116	31
40	-81	313	-220	31
262	-53	674	-301	31
298	86	340	-727	31
-43	352	-17	132	31
-181	416	-422	253	31
-276	167	-482	60	31
-256	-182	-155	74	31
172	-306	-22	-108	31
322	-213	64	164	31
171	-392	125	344	31
221	-604	44	414	31
237	-447	193	17	31
197	170	293	135	31
27	432	-100	468	31
-204	342	-509	127	31
-120	178	-332	-1302	31
-46	-227	32	-951	31
-21	-42	98	183	31
-127	103	-2	261	31
-128	8	-137	527	31
-2	-32	-95	39	31
-31	-330	-102	-265	31
132	-135	-26	-577	31
179	175	-42	-128	31
-120	147	-134	151	31
-302	133	66	-144	31
-276	-208	133	145	31
-109	-494	125	155	31
183	-62	-4	-181	31
230	529	76	-439	31
48	613	203	206	31
-127	174	120	516	31
-91	-468	67	335	31
49	-761	39	308	31
143	-487	92	194	31
242	-208	6	464	31
206	-70	-34	399	31
94	99	-52	-262	31
-7	136	14	-468	31
-62	242	-23	26	31
-64	296	-223	63	31
-92	277	-153	-183	31
-140	345	9	-22	31
-115	298	113	-269	31
-102	293	145	-242	31
-87	441	128	-376	31
-80	384	61	-701	31
-181	12	47	11	31
-193	-487	-95	441	31
-47	-603	-373	739	31
226	-24	-414	871	31
307	125	-112	-386	31
24	-120	252	-1270	31
-11	-233	389	-85	31
33	-291	350	448	31
-124	24	246	-4	31
-194	118	54	148	31
-314	215	-176	204	31
-206	325	-223	582	31
188	85	-54	141	31
328	-194	70	-420	31
9	-279	-77	-281	31
-82	-178	-203	-228	31
276	-179	-161	-41	31
276	-31	47	20	31
174	-68	42	310	31
201	54	-57	257	31
-9	487	46	-131	31
-127	399	72	-137	31
-135	213	97	-380	31
-163	278	14	-184	31
-145	545	2	390	31
-159	608	-123	270	31
-146	254	-201	-229	31
-83	-538	-148	-713	31
105	-1081	-206	-431	31
122	-372	-130	81	31
-11	-184	29	166	31
37	-621	531	825	31
28	-416	692	534	31
72	-428	199	-20	31
199	-250	-279	505	31
246	-147	-342	559	31
177	-342	-151	188	31
27	-55	-158	-1277	31
-44	199	24	-1012	31
-123	376	100	877	31
-224	507	-25	501	31
-240	415	47	248	31
-211	244	79	85	31
-125	81	137	-909	31
53	138	175	-1009	31
117	188	53	49	31
37	-75	-91	-10	31
100	-310	-106	-526	31
189	-367	-135	15	31
102	-182	-25	54	31
44	-7	96	362	31
-9	36	74	322	31
-56	148	59	586	31
-28	116	-48	820	31
-32	134	-29	181	31
-20	120	-1	-633	31
-31	82	-45	-812	31
-52	126	-166	-19	31
-55	140	-236	-170	31
-62	255	-168	204	31
-70	353	-218	617	31
-85	394	-224	734	31
-48	254	-9	363	31
-19	-202	389	-659	31
-24	-544	510	-241	31
-2	-490	288	-258	31
29	-294	128	-233	31
52	-57	-52	489	31
95	-7	-141	-98	31
41	-8	-98	-485	31
-12	53	-86	-181	31
32	44	-73	72	31
-52	134	-103	274	31
-168	120	-43	490	31
-186	16	47	1085	31
-104	-80	-76	492	31
19	-93	-117	-1504	31
206	-22	-52	-1744	31
356	-4	60	185	31
111	32	485	680	31
-185	84	440	44	31
-224	63	16	-142	31
-293	-55	51	-400	31
-247	-55	39	487	31
83	37	56	702	31
395	36	86	303	31
326	10	-14	72	31
87	14	-190	-504	31
7	-51	-555	55	31
-72	-79	-542	429	31
-46	49	-327	451	31
-99	115	-167	135	31
-328	98	-26	-41	31
-261	12	92	983	31
-261	12	92	983	31
-258	16	92	970	31
-255	20	92	957	31
-251	25	91	944	31
-248	29	91	931	31
-245	34	90	917	31
-241	38	90	904	31
-238	42	89	891	31
-235	47	89	878	31
-231	51	88	864	31
-228	56	88	851	31
-225	60	87	838	31
-221	64	87	825	31
-218	69	86	811	31
-214	73	86	798	31
-211	78	85	785	31
-208	82	85	772	31
-204	86	84	758	31
-201	91	84	745	31
-198	95	83	732	31
-194	100	83	719	31
-191	104	82	705	31
-188	108	82	692	31
-184	113	81	679	31
-181	117	81	666	31
-178	122	80	652	31
-174	126	80	639	31
-171	130	79	626	31
-167	135	79	613	31
-164	139	78	599	31
-161	144	78	586	31
-157	148	77	573	31
-154	152	77	560	31
-151	157	76	546	31
-147	161	76	533	31
-144	166	75	520	31
-141	170	75	507	31
-137	174	75	494	31
-134	179	74	480	31
-131	183	74	467	31
-127	188	73	454	31
-124	192	73	441	31
-120	196	72	427	31
-117	201	72	414	31
-114	205	71	401	31
-110	210	71	388	31
-107	214	70	374	31
-104	218	70	361	31
-100	223	69	348	31
-97	227	69	335	31
-94	232	68	321	31
-90	236	68	308	31
-87	240	67	295	31
-84	245	67	282	31
-80	249	66	268	31
-77	254	66	255	31
-73	258	65	242	31
-70	262	65	229	31
-67	267	64	215	31
-63	271	64	202	31
-60	276	63	189	31
-57	280	63	176	31
-53	284	62	162	31
-50	289	62	149	31
-47	293	61	136	31
-43	298	61	123	31
-40	302	60	109	31
-37	306	60	96	31
-33	311	59	83	31
-30	315	59	70	31
-26	320	58	56	31
26	145	-111	182	31
-39	-118	-235	226	31
-51	-388	-77	274	31
70	-294	56	181	31
78	-45	57	-108	31
71	31	46	-218	31
-130	67	59	-244	31
-117	68	36	96	31
-116	13	21	35	31
-150	-14	-52	-34	31
-86	67	-94	50	31
-56	106	-22	-27	31
-62	79	2	201	31
-176	89	13	443	31
-74	141	74	424	31
7	158	118	232	31
-39	81	211	-363	31
-53	-27	204	-795	31
-46	-16	-31	-335	31
24	66	-213	109	31
37	-16	-253	220	31
-16	-174	2	-36	31
9	-132	314	173	31
22	19	308	336	31
-55	174	197	-476	31
-107	319	154	-254	31
-138	183	100	322	31
-57	-126	-146	131	31
90	-358	-428	-305	31
143	-349	-474	-497	31
110	-171	-333	-1	31
72	-92	-103	584	31
-46	-31	247	883	31
-75	-6	360	72	31
-2	12	352	-103	31
-32	28	449	639	31
27	25	183	-486	31
105	52	-108	-686	31
65	38	-219	-423	31
-19	27	-394	-779	31
-17	13	-391	7	31
-5	18	-125	-52	31
-21	37	-56	183	31
-27	92	-54	385	31
-87	252	20	177	31
-131	363	19	417	31
-149	254	105	64	31
-91	-8	146	-163	31
11	-280	160	-180	31
150	-392	38	185	31
220	-135	-94	367	31
120	74	-141	218	31
57	98	-67	-76	31
26	108	80	-471	31
-21	-141	93	-488	31
1	-265	109	-172	31
34	-229	31	279	31
69	-119	-56	287	31
27	212	-103	388	31
-87	285	-171	356	31
-163	128	-183	-382	31
-254	-28	-69	-926	31
-199	-204	15	-176	31
-19	-260	-36	608	31
-12	-116	130	629	31
58	189	354	641	31
327	579	267	-348	31
196	551	-100	-822	31
-106	113	-269	13	31
-17	-303	-36	112	31
9	-651	62	-595	31
56	-554	103	-410	31
119	-283	76	125	31
42	-107	-32	199	31
60	32	-31	102	31
12	29	-74	38	31
-15	87	-27	44	31
-92	84	-36	165	31
-268	111	-24	360	31
-267	120	59	37	31
-154	150	37	-91	31
2	520	-39	65	31
208	729	-70	242	31
252	282	-50	290	31
135	-329	-6	128	31
110	-609	143	-168	31
138	-506	241	-388	31
75	-64	199	-173	31
-115	169	93	-41	31
-244	259	-35	-161	31
-154	425	-128	-83	31
-131	713	-43	26	31
-194	1669	24	-19	31
-225	1879	-94	-22	31
-279	570	-102	-25	31
-87	-1305	-27	44	31
310	-2284	-31	11	31
620	-1798	-23	46	31
612	-652	-19	42	31
612	-652	-19	42	31
600	-643	-16	42	31
588	-634	-13	43	31
576	-625	-10	44	31
564	-616	-7	45	31
552	-607	-4	46	31
540	-598	0	47	31
528	-589	3	48	31
516	-580	6	48	31
503	-571	9	49	31
491	-562	12	50	31
479	-553	15	51	31
467	-544	19	52	31
455	-535	22	53	31
443	-526	25	54	31
431	-517	28	55	31
419	-508	31	55	31
407	-499	34	56	31
394	-490	38	57	31
382	-481	41	58	31
370	-471	44	59	31
358	-462	47	60	31
346	-453	50	61	31
334	-444	53	61	31
322	-435	57	62	31
310	-426	60	63	31
297	-417	63	64	31
285	-408	66	65	31
273	-399	69	66	31
261	-390	72	67	31
249	-381	76	68	31
237	-372	79	68	31
225	-363	82	69	31
213	-354	85	70	31
201	-345	88	71	31
188	-336	91	72	31
176	-327	95	73	31
164	-318	98	74	31
152	-309	101	74	31
140	-300	104	75	31
128	-290	107	76	31
116	-281	110	77	31
104	-272	114	78	31
91	-263	117	79	31
79	-254	120	80	31
67	-245	123	81	31
55	-236	126	81	31
43	-227	129	82	31
31	-218	133	83	31
19	-209	136	84	31
7	-200	139	85	31
-5	-191	142	86	31
-18	-182	145	87	31
-30	-173	148	87	31
-42	-164	152	88	31
-54	-155	155	89	31
-66	-146	158	90	31
-78	-137	161	91	31
-90	-128	164	92	31
-102	-119	167	93	31
-115	-109	171	94	31
-128	255	87	123	31
-163	285	46	296	31
-94	176	-49	426	31
105	31	-97	195	31
119	-191	-110	-102	31
15	-203	-113	-461	31
87	-363	-148	95	31
213	-439	-97	122	31
130	-71	-107	274	31
67	91	-39	292	31
-7	229	6	-150	31
-164	408	-30	-205	31
-144	597	91	7	31
-142	947	113	570	31
-116	671	66	593	31
-59	-230	-32	327	31
49	-1125	-125	-458	31
219	-1246	9	-976	31
219	-438	247	-183	31
216	25	238	566	31
234	2	55	769	31
44	-113	-185	389	31
-33	-219	-363	-395	31
30	-50	-186	-765	31
-69	213	133	-611	31
-115	880	108	-185	31
-199	1178	-100	133	31
-233	657	8	314	31
-238	265	156	102	31
-204	43	203	-236	31
-106	459	218	-112	31
-176	890	141	-87	31
-155	-26	-29	-37	31
2	-1251	-216	155	31
247	-1864	-207	247	31
471	-1883	-11	411	31
519	-1140	133	492	31
388	-263	-30	229	31
108	101	-58	-358	31
-67	423	6	-619	31
-109	1057	-93	-4	31
-194	1646	-87	323	31
-365	1974	-25	1	31
-535	1983	-38	155	31
-559	1110	-65	185	31
-327	-808	150	-256	31
29	-2218	236	-413	31
302	-2081	-41	-202	31
518	-1273	-162	140	31
571	-656	-227	206	31
302	-472	-193	-39	31
115	-414	27	-193	31
117	405	137	-153	31
24	891	64	33	31
-60	893	93	85	31
-151	1249	191	131	31
-153	915	97	296	31
-87	267	36	498	31
-85	-486	-89	600	31
19	-1317	-58	78	31
137	-637	68	-681	31
91	772	84	-1199	31
-60	1062	136	-659	31
-249	495	14	326	31
-326	-422	-37	405	31
-152	-712	36	333	31
19	-366	49	22	31
27	136	-35	-140	31
-18	-30	-173	-23	31
22	-583	-120	-52	31
175	-498	36	100	31
262	-829	168	17	31
148	148	269	-209	31
-57	1668	79	41	31
-236	1584	-173	324	31
-310	1337	-190	334	31
-248	1046	-370	182	31
-215	571	-330	-276	31
-85	-958	-62	-602	31
180	-2222	69	-295	31
388	-1821	244	190	31
515	-833	194	-127	31
386	-191	190	73	31
12	157	95	483	31
-277	1008	-26	513	31
-365	1161	-83	413	31
-342	232	-395	-317	31
-146	-578	-403	-899	31
163	-867	-381	-609	31
319	-336	-282	150	31
284	-453	-99	199	31
196	-233	44	304	31
130	349	391	168	31
-39	306	467	-91	31
-158	590	285	54	31
-188	812	106	70	31
-326	1307	70	270	31
-411	1325	92	362	31
-401	851	102	85	31
-295	50	39	-514	31
-113	-782	-34	-488	31
83	-797	-23	176	31
317	-1468	9	84	31
440	-1404	50	39	31
405	-997	-219	-15	31
357	-1337	-313	-338	31
328	-580	39	20	31
198	-26	386	99	31
49	65	428	9	31
-72	224	69	216	31
-183	113	-154	490	31
-154	235	-274	528	31
-127	505	-274	146	31
-171	751	19	-183	31
-219	763	100	-455	31
-225	1227	75	-408	31
-257	1872	77	-147	31
-367	1089	268	-311	31
-289	-773	335	17	31
43	-2124	-71	327	31
343	-1708	-388	-117	31
443	-400	-392	222	31
284	128	-102	222	31
8	554	77	-40	31
-14	266	-45	370	31
12	-104	-221	317	31
63	-251	-158	78	31
135	-318	-14	-674	31
27	166	84	-812	31
-53	98	257	648	31
-43	-13	22	800	31
18	98	-252	-189	31
-28	400	-242	-379	31
-102	1089	69	-663	31
-209	1213	368	-326	31
-317	609	118	152	31
-244	0	2	50	31
-92	-571	108	-334	31
74	-1098	89	-835	31
172	-1388	43	-580	31
239	-1320	79	-425	31
250	-403	148	215	31
236	249	133	732	31
101	643	-86	631	31
-105	714	-219	479	31
-148	-79	-49	226	31
-54	-475	-211	500	31
75	-421	-241	636	31
96	-70	46	90	31
90	41	172	-386	31
21	98	270	-204	31
-49	471	19	244	31
-77	861	-84	460	31
-107	914	-53	214	31
-112	183	-54	-44	31
-126	-237	-47	-474	31
-148	103	-232	-392	31
-162	599	-115	-224	31
-80	416	-74	-137	31
20	34	12	160	31
164	170	38	-242	31
171	170	-119	-216	31
57	-146	132	-357	31
37	-482	327	-252	31
79	-564	207	274	31
137	-879	35	130	31
31	-820	-9	372	31
-8	-226	87	290	31
-95	495	65	-44	31
-173	773	-175	-188	31
-85	-523	-253	-479	31
1	-1610	-74	-24	31
311	-1467	19	626	31
357	-618	35	308	31
118	77	-22	-305	31
-14	518	-221	-626	31
-120	1024	-327	-665	31
-120	584	-126	-29	31
-128	-8	196	26	31
-199	-160	365	-262	31
-236	173	349	469	31
-176	457	288	428	31
-188	470	181	179	31
-158	669	6	529	31
1	215	-60	70	31
170	-652	-136	-16	31
368	-910	-200	-50	31
323	-166	-103	18	31
249	688	-22	727	31
19	1732	-34	713	31
-258	1847	-33	417	31
-208	100	-53	-171	31
-153	-1201	-251	-454	31
111	-1237	-332	-335	31
195	-169	-216	-736	31
67	-24	-24	-526	31
0	-405	171	-363	31
-4	-444	149	-43	31
85	-819	-46	497	31
92	24	-209	239	31
79	251	-36	-41	31
-97	-120	263	-948	31
-96	-82	418	-769	31
2	-362	363	405	31
-2	204	178	837	31
-56	801	33	544	31
-143	853	135	198	31
-115	470	429	121	31
-82	-276	197	-428	31
75	-479	-73	-137	31
131	-302	-132	-46	31
79	-158	-280	-161	31
64	10	-153	520	31
0	103	-113	375	31
-11	88	-103	204	31
-12	120	-65	484	31
-19	50	-73	209	31
-29	-1	-170	-353	31
-54	-37	-229	-1433	31
-88	-74	-54	-1473	31
-62	-10	-91	-240	31
-44	-6	-20	431	31
-24	22	-151	893	31
34	39	-236	353	31
47	90	-108	153	31
48	124	-212	85	31
7	88	43	-208	31
-26	101	276	-190	31
-51	110	447	-211	31
-70	107	391	253	31
-55	-1	183	44	31
-24	-141	84	-49	31
27	-138	65	186	31
36	-12	65	173	31
20	27	-24	42	31
14	39	-70	87	31
16	88	-366	271	31
2	91	-330	283	31
-4	184	-221	113	31
13	173	-112	62	31
18	44	141	226	31
8	-156	140	-82	31
26	-287	90	-370	31
41	-141	3	-547	31
29	-66	122	-142	31
1	-29	79	48	31
-39	-4	-36	-287	31
-14	3	-21	22	31
-15	121	-60	169	31
-50	110	-54	183	31
-63	94	-19	-22	31
-84	163	103	-302	31
-53	104	100	14	31
-17	-133	-81	395	31
-8	-405	-204	237	31
38	-412	-284	393	31
125	36	-214	838	31
82	499	41	-82	31
-53	584	128	-1123	31
-72	441	229	-805	31
-159	396	246	-388	31
-339	1063	79	-309	31
-434	1193	17	-469	31
-352	-517	125	-346	31
-62	-2096	195	34	31
337	-1923	113	580	31
608	-635	116	715	31
493	421	110	294	31
286	525	105	602	31
223	-217	-77	944	31
123	-700	-217	1216	31
77	-342	-176	737	31
-18	224	-178	-749	31
-70	-55	-65	-2014	31
28	-603	170	-1151	31
10	-211	211	-133	31
0	266	-36	-430	31
40	370	-170	267	31
1	182	-146	241	31
-59	-115	-34	396	31
15	-175	72	205	31
55	50	119	-5	31
-25	146	-7	574	31
-71	113	-233	242	31
-125	207	-288	29	31
-132	195	-108	-665	31
-146	605	158	-631	31
-186	1167	125	-203	31
-189	983	-184	170	31
-150	72	-277	829	31
-3	-913	120	728	31
175	-1116	269	-62	31
224	-480	-108	-1374	31
123	-41	-180	-812	31
28	-24	168	-84	31
-6	98	370	66	31
-59	151	133	521	31
-137	608	-22	577	31
-175	1076	-27	823	31
-204	547	-106	118	31
-168	-383	15	-428	31
-4	-932	26	-497	31
113	-391	-78	2	31
102	202	-127	238	31
11	-99	-37	-49	31
-18	-140	183	181	31
46	-176	135	253	31
64	-32	-45	314	31
-19	145	-191	186	31
-130	-181	-262	353	31
-102	-36	-198	520	31
-44	161	-68	147	31
-29	437	7	-673	31
-128	831	104	-275	31
-290	647	351	631	31
-130	27	336	-706	31
120	-1018	159	-1599	31
307	-1583	138	-923	31
443	-637	332	-383	31
278	483	285	107	31
-90	853	-93	366	31
-295	773	-140	124	31
-184	-321	-260	253	31
98	-1190	-405	253	31
408	-994	-337	156	31
458	-294	-234	208	31
245	572	-105	-32	31
-41	984	-161	-39	31
-165	746	-186	21	31
-222	179	-104	149	31
-252	92	59	350	31
-121	290	233	-67	31
-124	861	319	-437	31
-117	922	338	214	31
-85	-97	167	410	31
-70	-974	-49	284	31
159	-1827	-193	303	31
264	-1458	-148	123	31
156	-798	-114	127	31
135	-704	-108	77	31
176	11	41	264	31
145	118	163	262	31
51	257	266	-65	31
63	354	227	-304	31
85	241	124	-294	31
-27	356	-64	-311	31
-177	214	-236	-500	31
-146	333	-237	-455	31
-122	322	-67	-85	31
-153	340	223	134	31
-98	279	68	12	31
-111	72	-138	190	31
-57	131	-157	352	31
-31	132	-198	406	31
-24	140	-85	150	31
-42	160	-133	-256	31
-82	233	-71	-70	31
-67	280	54	181	31
-115	181	57	29	31
-74	34	27	-722	31
-11	-131	-64	-754	31
55	-238	21	430	31
62	-67	128	530	31
-20	174	157	120	31
-62	325	244	-463	31
-89	317	393	-656	31
-80	-9	302	656	31
-74	6	197	593	31
-40	193	-74	260	31
-17	198	-535	-345	31
-16	-65	-320	-1239	31
127	-616	84	-282	31
196	-401	67	247	31
61	-251	33	224	31
-9	-264	78	331	31
-88	77	-105	483	31
-135	154	-194	516	31
-174	414	-167	145	31
-233	42	-110	-419	31
-154	-386	-37	-630	31
-25	-529	-128	104	31
304	-758	15	410	31
568	-570	183	357	31
494	-295	195	540	31
244	79	132	259	31
102	85	-3	-14	31
106	246	48	-410	31
68	310	128	-382	31
65	70	168	-267	31
-6	11	202	-807	31
-54	-16	59	-323	31
-75	216	-71	-215	31
-97	269	-199	-68	31
-120	470	-386	744	31
-199	487	-292	476	31
-247	136	42	559	31
-324	-328	274	110	31
-247	-732	172	-726	31
14	-251	-110	-732	31
255	1	-158	-191	31
281	-33	-85	-21	31
125	150	-115	-27	31
22	360	-7	343	31
-106	856	26	27	31
-167	602	98	207	31
-198	-216	229	377	31
-66	-685	152	259	31
144	-436	41	-20	31
80	500	-1	-307	31
-16	720	79	80	31
-64	-26	-78	105	31
6	-757	-158	182	31
167	-910	-44	290	31
216	-492	-32	162	31
130	-69	-16	88	31
2	115	-64	-4	31
-54	136	-22	-2	31
-82	161	32	-36	31
-99	298	63	-188	31
-135	411	23	-440	31
-212	353	-49	-231	31
-212	167	-45	29	31
-95	-38	-1	-276	31
-1	139	69	-203	31
44	870	36	305	31
32	1086	-102	687	31
-72	-17	-203	564	31
-3	-1336	-96	-19	31
234	-1439	1	-771	31
363	-756	-16	-665	31
236	-302	-118	-120	31
80	-310	-112	-52	31
67	-351	102	185	31
-25	-150	186	-46	31
-56	-31	209	-49	31
-55	126	118	691	31
-100	317	-33	997	31
-97	469	136	342	31
-101	487	231	-632	31
-101	287	110	-1019	31
-64	62	29	-287	31
-9	-71	-39	216	31
-26	92	-87	-114	31
-21	431	-243	295	31
-74	817	-189	50	31
-115	566	77	-517	31
-74	-161	148	-300	31
-65	-470	94	-105	31
-9	-424	-83	290	31
50	-421	-195	36	31
170	-526	-161	-241	31
271	-202	-52	-45	31
183	-157	85	105	31
3	-156	39	287	31
-62	-19	-62	137	31
-36	-163	-48	-220	31
-55	123	25	-146	31
-66	247	85	415	31
-6	360	133	635	31
38	524	45	469	31
-78	369	-172	-92	31
-89	179	-117	-454	31
-10	-188	36	-228	31
39	-492	-17	-181	31
90	-341	42	-286	31
89	-43	179	27	31
74	-41	118	410	31
-33	64	-43	249	31
-49	63	-91	-54	31
-40	-6	-168	-49	31
-77	30	-106	-32	31
-67	-57	32	-14	31
-122	21	-85	87	31
-128	52	-133	39	31
-117	85	-68	157	31
-89	151	113	336	31
16	279	220	305	31
26	424	108	77	31
-87	298	13	-340	31
22	38	-57	-431	31
234	-300	-93	20	31
231	-275	-21	196	31
261	-31	154	-11	31
218	-35	242	-529	31
19	-14	91	-443	31
-67	63	-47	181	31
-125	264	1	14	31
-137	301	-118	236	31
-89	-98	-140	253	31
-11	-504	27	259	31
93	-595	-112	449	31
47	-264	-245	-137	31
-55	5	-54	-662	31
-89	242	125	-416	31
-78	603	75	-2	31
-67	466	65	-174	31
-118	6	32	-13	31
-116	-426	21	-36	31
14	-368	87	-170	31
89	-58	47	-243	31
33	-236	11	-110	31
10	-284	-4	165	31
97	-201	57	177	31
137	-179	174	-64	31
108	-41	178	-79	31
153	-37	57	103	31
118	-12	-9	143	31
-67	85	-137	338	31
-72	181	-267	154	31
-23	261	-231	216	31
-22	241	-92	160	31
-3	120	32	115	31
-57	9	-163	272	31
-70	-9	-125	262	31
-24	118	95	79	31
53	357	93	-628	31
-32	512	138	-697	31
-182	589	69	-254	31
-221	212	-31	-4	31
-247	-506	-116	73	31
-52	-844	-71	88	31
267	-757	16	112	31
274	-302	31	489	31
59	-44	78	805	31
-57	59	10	120	31
-169	306	-41	-617	31
-253	340	-52	-456	31
-185	390	17	355	31
-39	218	91	516	31
89	-267	-10	27	31
162	-508	-123	-423	31
233	-376	-71	-809	31
248	-150	132	-587	31
143	-2	173	177	31
29	88	101	128	31
1	79	84	-46	31
-65	92	-13	254	31
-30	132	-37	-6	31
70	244	-86	177	31
-27	353	-188	357	31
-154	214	-148	165	31
-235	25	-55	-24	31
-233	-21	73	-494	31
-153	100	146	-304	31
-39	267	153	448	31
141	63	148	306	31
248	-371	74	-92	31
173	-511	32	152	31
44	-339	-32	155	31
123	-192	-9	-454	31
85	-101	32	-622	31
40	32	-29	-262	31
132	17	-21	214	31
53	3	-84	536	31
-27	33	-131	367	31
-46	66	-252	288	31
97	131	-200	-47	31
91	108	-34	-209	31
26	144	-106	155	31
-15	234	-54	210	31
-115	272	124	-33	31
-122	199	189	-309	31
-277	-7	146	-634	31
-192	-208	105	-187	31
-13	-221	97	92	31
110	-67	211	-518	31
159	70	172	-231	31
-22	168	-16	-54	31
-74	84	-138	-228	31
-74	84	-138	-228	31
-74	84	-138	-227	31
-74	84	-138	-225	31
-74	84	-138	-224	31
-73	85	-138	-222	31
-73	85	-138	-220	31
-73	85	-138	-219	31
-73	86	-138	-217	31
-72	86	-138	-215	31
-72	86	-138	-214	31
-72	86	-138	-212	31
-72	87	-138	-210	31
-71	87	-139	-209	31
-71	87	-139	-207	31
-71	88	-139	-205	31
-71	88	-139	-204	31
-70	88	-139	-202	31
-70	89	-139	-201	31
-70	89	-139	-199	31
-69	89	-139	-197	31
-69	89	-139	-196	31
-69	90	-139	-194	31
-69	90	-139	-192	31
-68	90	-139	-191	31
-68	91	-140	-189	31
-68	91	-140	-187	31
-68	91	-140	-186	31
-67	91	-140	-184	31
-67	92	-140	-182	31
-67	92	-140	-181	31
-67	92	-140	-179	31
-66	93	-140	-177	31
-66	93	-140	-176	31
-66	93	-140	-174	31
-66	94	-140	-173	31
-65	94	-141	-171	31
-65	94	-141	-169	31
-65	94	-141	-168	31
-64	95	-141	-166	31
-64	95	-141	-164	31
-64	95	-141	-163	31
-64	96	-141	-161	31
-63	96	-141	-159	31
-63	96	-141	-158	31
-63	97	-141	-156	31
-63	97	-141	-154	31
-62	97	-141	-153	31
-62	97	-142	-151	31
-62	98	-142	-150	31
-62	98	-142	-148	31
-61	98	-142	-146	31
-61	99	-142	-145	31
-61	99	-142	-143	31
-61	99	-142	-141	31
-60	99	-142	-140	31
-60	100	-142	-138	31
-60	100	-142	-136	31
-59	100	-142	-135	31
-59	101	-143	-133	31
-59	101	-143	-131	31
-59	101	-143	-130	31
-58	102	-143	-128	31
-58	102	-143	-126	31
-58	102	-143	-125	31
-58	102	-143	-123	31
-57	103	-143	-122	31
-57	103	-143	-120	31
-57	103	-143	-118	31
-57	104	-143	-117	31
-56	104	-143	-115	31
-56	104	-144	-113	31
-56	104	-144	-112	31
-56	105	-144	-110	31
-55	105	-144	-108	31
-55	105	-144	-107	31
-55	106	-144	-105	31
-54	106	-144	-103	31
-54	106	-144	-102	31
-54	107	-144	-100	31
-54	107	-144	-99	31
-53	107	-144	-97	31
-53	107	-144	-95	31
-53	108	-145	-94	31
-53	108	-145	-92	31
-52	108	-145	-90	31
-52	109	-145	-89	31
-52	109	-145	-87	31
-52	109	-145	-85	31
-51	110	-145	-84	31
-51	110	-145	-82	31
-51	110	-145	-80	31
-51	110	-145	-79	31
-50	111	-145	-77	31
-50	111	-146	-75	31
-50	111	-146	-74	31
-49	112	-146	-72	31
-49	112	-146	-71	31
-49	112	-146	-69	31
-49	112	-146	-67	31
-48	113	-146	-66	31
-48	113	-146	-64	31
-48	113	-146	-62	31
-48	114	-146	-61	31
-47	114	-146	-59	31
-47	114	-146	-57	31
-47	115	-147	-56	31
-47	115	-147	-54	31
-46	115	-147	-52	31
-46	115	-147	-51	31
-46	116	-147	-49	31
-45	116	-147	-47	31
-45	116	-147	-46	31
-45	117	-147	-44	31
-45	117	-147	-43	31
-44	117	-147	-41	31
-44	117	-147	-39	31
-44	118	-148	-38	31
-44	118	-148	-36	31
-43	118	-148	-34	31
-43	119	-148	-33	31
-43	119	-148	-31	31
-43	119	-148	-29	31
-42	120	-148	-28	31
-42	120	-148	-26	31
-42	120	-148	-24	31
-42	120	-148	-23	31
-41	121	-148	-21	31
-41	121	-148	-20	31
-41	121	-149	-18	31
-40	122	-149	-16	31
-40	122	-149	-15	31
-40	122	-149	-13	31
-40	123	-149	-11	31
-39	123	-149	-10	31
-39	123	-149	-8	31
-39	123	-149	-6	31
-39	124	-149	-5	31
-38	124	-149	-3	31
-38	124	-149	-1	31
-38	125	-150	0	31
-38	125	-150	2	31
-37	125	-150	4	31
-37	125	-150	5	31
-37	126	-150	7	31
-37	126	-150	8	31
-36	126	-150	10	31
-36	127	-150	12	31
-36	127	-150	13	31
-35	127	-150	15	31
-35	128	-150	17	31
-35	128	-150	18	31
-35	128	-151	20	31
-34	128	-151	22	31
-34	129	-151	23	31
-34	129	-151	25	31
-34	129	-151	27	31
-33	130	-151	28	31
-33	130	-151	30	31
-33	130	-151	31	31
-33	130	-151	33	31
-32	131	-151	35	31
-32	131	-151	36	31
-32	131	-151	38	31
-32	132	-152	40	31
-31	132	-152	41	31
-31	132	-152	43	31
-31	133	-152	45	31
-30	133	-152	46	31
-30	133	-152	48	31
-30	133	-152	50	31
-30	134	-152	51	31
-29	134	-152	53	31
-29	134	-152	55	31
-29	135	-152	56	31
-29	135	-153	58	31
-28	135	-153	59	31
-28	136	-153	61	31
-28	136	-153	63	31
-28	136	-153	64	31
-27	136	-153	66	31
-27	137	-153	68	31
-27	137	-153	69	31
-27	137	-153	71	31
-26	138	-153	73	31
-26	138	-153	74	31
-26	138	-153	76	31
-25	138	-154	78	31
-25	139	-154	79	31
-25	139	-154	81	31
-25	139	-154	82	31
-24	140	-154	84	31
-24	140	-154	86	31
-24	140	-154	87	31
-24	141	-154	89	31
-23	141	-154	91	31
-23	141	-154	92	31
-23	141	-154	94	31
-23	142	-155	96	31
-22	142	-155	97	31
-22	142	-155	99	31
-22	143	-155	101	31
-22	143	-155	102	31
-21	143	-155	104	31
-21	143	-155	106	31
-21	144	-155	107	31
-20	144	-155	109	31
-20	144	-155	110	31
-20	145	-155	112	31
-20	145	-155	114	31
-19	145	-156	115	31
-19	146	-156	117	31
-19	146	-156	119	31
-19	146	-156	120	31
-18	146	-156	122	31
-18	147	-156	124	31
-18	147	-156	125	31
-18	147	-156	127	31
-17	148	-156	129	31
-17	148	-156	130	31
-17	148	-156	132	31
-16	149	-157	134	31
64	174	-245	181	31
-121	107	-185	188	31
-119	120	-175	243	31
-108	36	-234	298	31
-46	19	-207	158	31
80	7	184	54	31
-37	22	259	62	31
84	51	261	-119	31
34	59	378	-929	31
-131	99	127	-577	31
-219	52	-16	540	31
-347	16	17	396	31
-324	-6	2	-287	31
-51	22	-24	-76	31
267	55	234	462	31
228	29	326	261	31
146	64	294	52	31
95	201	458	-80	31
-90	456	100	446	31
-269	678	-193	373	31
-359	712	-455	-489	31
-284	376	-1017	-199	31
-208	-265	-838	-117	31
44	-802	-472	309	31
310	-1024	-188	72	31
249	-812	-59	-848	31
314	-388	-156	-550	31
502	-138	21	-295	31
375	17	118	-5	31
188	100	275	496	31
-18	145	333	502	31
-199	336	414	148	31
-261	560	266	225	31
-318	604	57	144	31
-185	325	144	406	31
-100	-172	95	140	31
77	-694	555	-567	31
218	-716	741	-719	31
164	-198	499	-166	31
199	-32	95	717	31
-6	-44	-809	673	31
-152	16	-1051	259	31
-118	-45	-742	-735	31
-111	-31	-286	-529	31
-52	16	-44	319	31
-19	272	-16	-205	31
-25	484	85	-370	31
-110	372	101	-174	31
-95	79	583	-261	31
-79	-244	632	107	31
-152	-303	37	266	31
-225	-110	-221	253	31
-212	22	-450	483	31
-109	-55	-439	85	31
9	-49	-152	-143	31
319	14	-3	109	31
446	107	107	27	31
211	356	31	20	31
42	495	-35	112	31
-119	307	9	-52	31
-213	-84	74	-423	31
-34	-422	208	-373	31
-25	-434	136	284	31
-79	-188	74	104	31
-37	-59	133	-90	31
53	64	143	113	31
221	226	193	40	31
196	335	-33	49	31
164	284	-111	-86	31
164	284	-111	-86	31
161	276	-108	-85	31
158	268	-105	-83	31
155	260	-101	-81	31
152	252	-98	-79	31
149	244	-95	-77	31
146	236	-91	-76	31
143	228	-88	-74	31
140	220	-84	-72	31
137	212	-81	-70	31
134	204	-78	-68	31
131	196	-74	-67	31
128	188	-71	-65	31
125	180	-68	-63	31
122	172	-64	-61	31
119	164	-61	-59	31
116	156	-57	-57	31
113	148	-54	-56	31
110	140	-51	-54	31
107	132	-47	-52	31
103	124	-44	-50	31
100	116	-40	-48	31
97	108	-37	-47	31
94	100	-34	-45	31
91	92	-30	-43	31
88	84	-27	-41	31
85	76	-24	-39	31
82	68	-20	-37	31
79	60	-17	-36	31
76	52	-13	-34	31
73	44	-10	-32	31
70	36	-7	-30	31
67	28	-3	-28	31
64	20	0	-27	31
61	12	4	-25	31
58	4	7	-23	31
55	-4	10	-21	31
52	-12	14	-19	31
49	-20	17	-17	31
46	-28	20	-16	31
42	-36	24	-14	31
39	-44	27	-12	31
36	-52	31	-10	31
33	-60	34	-8	31
30	-68	37	-7	31
27	-76	41	-5	31
24	-84	44	-3	31
21	-92	48	-1	31
18	-100	51	1	31
15	-108	54	3	31
12	-116	58	4	31
9	-124	61	6	31
6	-132	64	8	31
3	-140	68	10	31
0	-148	71	12	31
-3	-156	75	13	31
-6	-164	78	15	31
-9	-172	81	17	31
-12	-180	85	19	31
-15	-188	88	21	31
-19	-196	92	23	31
-48	37	305	4	31
-38	-30	107	224	31
19	29	-3	468	31
95	-11	-32	609	31
81	-42	-65	222	31
3	21	-128	-578	31
-32	-14	-299	-982	31
-135	72	-212	-529	31
-148	118	-123	363	31
-156	94	-129	245	31
-140	65	5	249	31
0	44	78	301	31
58	34	264	-332	31
84	-26	366	-966	31
47	-83	352	-707	31
-7	-62	203	437	31
66	32	-170	522	31
195	36	-289	618	31
130	27	-204	13	31
2	24	10	-609	31
2	24	54	-65	31
-89	68	-113	-127	31
-135	42	-327	307	31
-163	9	-330	474	31
-297	-4	-133	228	31
-259	64	-57	-261	31
-70	188	93	-801	31
92	208	146	-496	31
260	160	3	-42	31
319	125	-40	654	31
206	77	93	640	31
19	54	136	70	31
-100	-195	81	-8	31
-19	-540	126	-96	31
148	-413	218	-114	31
249	-278	167	130	31
86	-149	39	172	31
-21	49	-44	405	31
-17	41	-34	459	31
-70	157	56	-93	31
-27	125	-23	-471	31
-129	2	-109	-609	31
-145	-60	-148	-263	31
-52	-3	-128	-272	31
8	218	72	-185	31
52	251	153	218	31
-152	206	124	210	31
-295	-37	-20	180	31
-228	-262	-79	-116	31
-77	-189	33	-259	31
216	-73	100	-95	31
408	-72	24	79	31
159	-85	-46	155	31
-92	-16	-49	311	31
-251	-54	-62	278	31
-295	-10	-15	41	31
66	45	-60	-239	31
140	117	-22	-79	31
164	213	-33	196	31
168	125	-60	69	31
-34	69	-11	203	31
-73	36	-42	295	31
31	1	-84	-127	31
148	-44	-120	-342	31
89	45	1	84	31
177	116	117	115	31
107	44	133	191	31
46	63	136	-223	31
5	79	241	-357	31
-148	184	272	-64	31
-103	118	11	-378	31
-134	-145	-274	-11	31
-77	-229	-310	-152	31
-77	-104	-95	-499	31
-13	122	122	-310	31
72	102	141	180	31
-34	-75	124	344	31
-66	-274	52	204	31
-17	-304	-52	144	31
9	-189	0	-19	31
7	-204	27	167	31
40	-43	-10	284	31
-50	12	-103	355	31
-61	4	-118	209	31
72	110	-6	27	31
35	134	42	100	31
-22	175	26	224	31
52	60	-123	328	31
31	-21	-310	353	31
-127	-14	-270	-201	31
-149	12	-36	-955	31
-110	-9	189	-804	31
-41	-93	140	-458	31
23	-36	50	-59	31
-168	19	56	644	31
-313	74	27	266	31
-249	58	86	-421	31
-50	-2	15	-383	31
393	-34	-18	-139	31
654	-24	-51	152	31
418	38	4	18	31
168	1	116	272	31
61	27	-8	415	31
7	54	-72	169	31
-45	19	-98	334	31
-90	66	-42	345	31
-84	65	21	231	31
-142	20	180	145	31
-141	-32	210	-421	31
-126	-40	45	-354	31
-46	82	-93	110	31
94	132	-127	-191	31
80	47	31	33	31
-27	-18	4	-32	31
-75	-7	-22	-566	31
-64	29	-112	-635	31
-107	-87	-211	-273	31
-70	-165	-156	378	31
112	-75	-78	161	31
179	-57	219	-295	31
-24	-59	149	127	31
-160	-45	35	365	31
-88	17	144	108	31
9	58	-8	-160	31
29	-20	-11	-95	31
-10	-49	31	335	31
54	-27	95	339	31
24	-19	135	297	31
-33	-21	48	176	31
-4	14	53	-72	31
-8	55	-55	-222	31
-24	42	-81	-104	31
-76	60	-98	-34	31
-39	97	-42	-173	31
-31	55	2	57	31
-70	-35	-181	31	31
8	-29	-259	-153	31
84	29	-193	-294	31
61	7	12	-69	31
-12	12	41	304	31
-22	21	44	431	31
75	45	78	417	31
132	92	90	890	31
16	54	133	934	31
-94	5	134	-318	31
-69	-89	213	-969	31
-32	-159	274	-1186	31
74	-104	247	-345	31
237	-62	22	-1	31
237	-62	22	-1	31
233	-61	24	-1	31
229	-60	26	0	31
225	-59	29	0	31
221	-58	31	1	31
217	-57	33	1	31
213	-56	36	2	31
209	-55	38	2	31
205	-54	41	3	31
201	-52	43	3	31
197	-51	45	4	31
193	-50	48	4	31
188	-49	50	5	31
184	-48	53	5	31
180	-47	55	6	31
176	-46	57	6	31
172	-45	60	7	31
168	-44	62	7	31
164	-42	64	8	31
160	-41	67	8	31
156	-40	69	9	31
152	-39	72	9	31
148	-38	74	10	31
144	-37	76	10	31
139	-36	79	11	31
135	-35	81	11	31
131	-34	84	12	31
127	-32	86	12	31
123	-31	88	13	31
119	-30	91	13	31
115	-29	93	14	31
111	-28	95	14	31
107	-27	98	15	31
103	-26	100	15	31
99	-25	103	16	31
94	-23	105	17	31
90	-22	107	17	31
86	-21	110	18	31
82	-20	112	18	31
78	-19	115	19	31
74	-18	117	19	31
70	-17	119	20	31
66	-16	122	20	31
62	-15	124	21	31
58	-13	126	21	31
54	-12	129	22	31
50	-11	131	22	31
45	-10	134	23	31
41	-9	136	23	31
37	-8	138	24	31
33	-7	141	24	31
29	-6	143	25	31
25	-5	146	25	31
21	-3	148	26	31
17	-2	150	26	31
13	-1	153	27	31
9	0	155	27	31
5	1	157	28	31
1	2	160	28	31
-4	3	162	29	31
-8	4	165	29	31
-12	5	167	30	31
-16	7	169	30	31
-20	8	172	31	31
-24	9	174	31	31
-28	10	177	32	31
-32	11	179	32	31
-36	12	181	33	31
-40	13	184	33	31
-44	14	186	34	31
-49	16	189	35	31
-40	-96	16	46	31
-150	-145	-80	59	31
157	-136	-110	285	31
590	-68	-218	68	31
362	47	-107	-301	31
145	127	145	-191	31
199	133	261	248	31
-124	123	203	775	31
-216	46	-26	255	31
-54	-130	-47	-552	31
22	-215	9	-115	31
116	-128	78	-305	31
-17	-9	142	32	31
-89	26	21	145	31
-93	-4	-54	-403	31
-105	31	-177	-83	31
-27	37	-277	-421	31
-65	-52	-134	-245	31
-35	-82	-4	-231	31
30	-12	21	-247	31
23	27	39	125	31
-34	-38	87	2	31
-3	-24	50	130	31
69	-37	47	79	31
-24	-33	17	150	31
-11	12	-104	101	31
9	-4	-132	62	31
-9	55	-59	111	31
-25	33	19	102	31
-153	26	20	184	31
-146	64	62	44	31
-30	76	45	11	31
1	122	2	40	31
-48	103	33	112	31
-18	26	24	119	31
-62	-60	-41	91	31
-166	-126	-122	71	31
-85	-160	-55	-12	31
17	-91	158	-80	31
260	6	321	44	31
503	29	150	117	31
226	60	-132	64	31
-7	142	-177	157	31
-22	208	-102	-269	31
-117	139	-10	-411	31
-37	-31	-42	-174	31
-48	-151	4	-106	31
2	-161	26	-87	31
59	-95	-29	-133	31
-21	-11	-107	222	31
-21	73	-200	370	31
-52	145	-92	377	31
-54	150	32	100	31
-90	84	168	-401	31
-88	-66	191	-143	31
-39	-197	64	118	31
3	-176	61	-244	31
37	-154	11	-186	31
54	-100	-28	39	31
42	2	63	180	31
-22	12	88	22	31
-16	32	108	133	31
-27	13	98	691	31
-31	-19	26	247	31
-41	12	-92	-184	31
-18	37	-222	-491	31
86	74	-199	-504	31
37	72	-49	-156	31
-86	55	4	231	31
-175	17	-3	236	31
-194	-29	33	-360	31
-89	-31	52	-280	31
10	-18	184	-120	31
103	3	192	-21	31
70	23	-45	35	31
-29	67	-109	-76	31
7	97	-122	230	31
-27	196	-219	336	31
-86	343	-179	163	31
-16	242	-74	35	31
72	28	45	42	31
202	-182	84	34	31
454	-477	87	-113	31
225	-425	105	-28	31
-181	-169	60	-145	31
-185	-117	84	-84	31
-155	-29	120	1	31
-47	-47	133	-286	31
105	-42	65	-145	31
291	40	-69	136	31
186	-9	-55	263	31
-51	57	-65	160	31
-33	107	-127	364	31
-87	151	-159	517	31
-89	110	-171	85	31
-30	-44	-112	-175	31
62	-60	-115	-404	31
9	-64	9	-384	31
-131	-17	118	-13	31
-58	35	161	-49	31
-69	82	173	-31	31
-50	146	69	180	31
12	114	12	89	31
-9	37	-47	-3	31
-17	-56	12	102	31
-27	-30	39	248	31
-12	56	12	-255	31
-122	16	-7	-377	31
-199	-47	27	-80	31
-68	-70	118	-53	31
123	-54	-16	363	31
257	-49	-140	130	31
113	-24	-87	-88	31
-69	24	-1	-170	31
-16	18	72	-352	31
-11	28	38	-145	31
-23	31	-46	0	31
-18	105	-49	168	31
2	282	-9	138	31
9	381	47	125	31
-143	365	-34	114	31
-186	252	-105	54	31
-163	-84	-42	67	31
-148	-381	-61	112	31
54	-370	-16	312	31
201	-527	30	302	31
341	-510	160	-32	31
439	-155	310	-273	31
202	-105	119	-291	31
9	-1	-127	-130	31
6	64	-245	84	31
-69	74	-173	12	31
-106	180	-39	-175	31
-110	91	2	-334	31
-123	73	-10	-239	31
-55	49	19	-13	31
2	55	105	7	31
31	131	72	94	31
33	72	-5	64	31
33	72	-5	64	31
33	70	-6	64	31
33	68	-7	64	31
34	65	-8	64	31
34	63	-10	65	31
35	61	-11	65	31
35	58	-12	65	31
36	56	-14	65	31
36	54	-15	66	31
37	51	-16	66	31
37	49	-18	66	31
38	47	-19	67	31
38	44	-20	67	31
39	42	-22	67	31
39	40	-23	67	31
40	37	-24	68	31
40	35	-26	68	31
41	33	-27	68	31
41	30	-28	69	31
41	28	-30	69	31
42	26	-31	69	31
42	23	-32	69	31
43	21	-34	70	31
43	19	-35	70	31
44	16	-36	70	31
44	14	-37	71	31
45	12	-39	71	31
45	9	-40	71	31
46	7	-41	71	31
46	4	-43	72	31
47	2	-44	72	31
47	0	-45	72	31
48	-3	-47	73	31
48	-5	-48	73	31
49	-7	-49	73	31
49	-10	-51	73	31
50	-12	-52	74	31
50	-14	-53	74	31
50	-17	-55	74	31
51	-19	-56	74	31
51	-21	-57	75	31
52	-24	-59	75	31
52	-26	-60	75	31
53	-28	-61	76	31
53	-31	-63	76	31
54	-33	-64	76	31
54	-35	-65	76	31
55	-38	-66	77	31
55	-40	-68	77	31
56	-42	-69	77	31
56	-45	-70	78	31
57	-47	-72	78	31
57	-49	-73	78	31
58	-52	-74	78	31
58	-54	-76	79	31
59	-57	-77	79	31
59	-59	-78	79	31
59	-61	-80	80	31
60	-64	-81	80	31
60	-66	-82	80	31
61	-68	-84	80	31
61	-71	-85	81	31
62	-73	-86	81	31
62	-75	-88	81	31
63	-78	-89	82	31
63	-80	-90	82	31
64	-82	-92	82	31
64	-85	-93	82	31
65	-87	-94	83	31
65	-89	-95	83	31
66	-92	-97	83	31
66	-94	-98	84	31
67	-96	-99	84	31
67	-99	-101	84	31
67	-101	-102	84	31
68	-103	-103	85	31
68	-106	-105	85	31
69	-108	-106	85	31
69	-110	-107	85	31
70	-113	-109	86	31
70	-115	-110	86	31
71	-117	-111	86	31
71	-120	-113	87	31
72	-122	-114	87	31
72	-125	-115	87	31
73	-127	-117	87	31
73	-129	-118	88	31
74	-132	-119	88	31
74	-134	-121	88	31
75	-136	-122	89	31
75	-139	-123	89	31
76	-141	-124	89	31
76	-143	-126	89	31
76	-146	-127	90	31
77	-148	-128	90	31
77	-150	-130	90	31
78	-153	-131	91	31
78	-155	-132	91	31
79	-157	-134	91	31
79	-160	-135	91	31
80	-162	-136	92	31
80	-164	-138	92	31
81	-167	-139	92	31
81	-169	-140	93	31
82	-171	-142	93	31
82	-174	-143	93	31
83	-176	-144	93	31
83	-178	-146	94	31
84	-181	-147	94	31
84	-183	-148	94	31
85	-186	-150	95	31
8	-125	-90	-394	31
-43	44	-80	-260	31
-50	241	1	-437	31
-98	432	65	-415	31
-83	346	-4	269	31
-110	-52	-70	77	31
-62	-464	-85	50	31
95	-619	-44	77	31
242	-384	74	219	31
170	-52	146	449	31
30	20	146	126	31
57	105	45	-382	31
55	138	36	-479	31
39	67	87	-166	31
-23	31	24	74	31
-47	-39	-45	281	31
-56	31	-58	429	31
-80	72	-41	631	31
-29	12	-16	635	31
-22	29	19	220	31
0	44	15	-391	31
36	26	26	-874	31
16	4	-55	-655	31
-31	8	-134	-365	31
-35	18	17	-155	31
-27	12	85	153	31
-52	4	46	29	31
-57	9	14	112	31
-89	23	-9	170	31
-54	39	5	162	31
31	54	-70	221	31
-16	70	-153	107	31
-8	98	-108	61	31
34	100	19	-246	31
-155	65	182	-209	31
-244	116	150	265	31
-128	327	-96	310	31
-12	401	-238	430	31
82	184	-290	717	31
203	-161	-122	402	31
323	-494	191	-528	31
334	-551	333	-1325	31
299	-328	252	-927	31
97	-163	50	61	31
24	-200	24	101	31
9	-192	17	87	31
-29	-102	32	372	31
-41	-65	49	324	31
-110	32	-45	387	31
-58	192	-87	-160	31
-97	263	-85	-756	31
-84	156	-80	-423	31
-69	6	-162	23	31
-11	-130	-186	61	31
67	-126	-138	-42	31
-14	207	-4	-4	31
-61	471	143	221	31
-124	554	191	297	31
-111	459	122	282	31
-105	-141	65	164	31
-64	-636	72	27	31
42	-749	-54	14	31
130	-650	-96	-100	31
201	-158	-69	116	31
88	192	-57	322	31
-20	268	-24	245	31
-48	166	15	210	31
-65	-113	64	-146	31
-31	-235	133	-351	31
3	-185	89	7	31
-7	80	-81	208	31
-54	199	-140	113	31
-73	228	-118	-59	31
-72	369	-45	-266	31
-89	341	62	-368	31
-96	517	170	-307	31
-107	699	128	-168	31
-141	466	-6	70	31
-108	130	-82	69	31
-14	-167	-70	-14	31
100	-497	-22	-52	31
201	-771	-29	-43	31
221	-943	-54	168	31
188	-518	-19	32	31
106	428	80	95	31
-56	995	70	133	31
-283	1640	52	-171	31
-389	1686	-18	-168	31
-262	439	-17	-164	31
-74	-1009	123	-80	31
200	-2136	124	93	31
481	-1901	148	135	31
529	-778	-15	305	31
293	188	-209	385	31
-87	1522	-269	343	31
-295	1570	-296	204	31
-276	338	-83	-267	31
-93	-739	85	-362	31
122	-803	148	-77	31
219	-39	13	236	31
84	38	-161	41	31
-145	-471	-42	-647	31
-50	-1200	229	-205	31
166	-958	321	328	31
234	-391	132	171	31
201	-456	-2	102	31
100	31	21	-386	31
-24	169	-50	-147	31
-59	226	-207	401	31
-23	389	-186	64	31
-93	329	-95	-83	31
-123	681	-1	-63	31
-141	901	106	35	31
-205	1253	74	205	31
-242	1504	-60	161	31
-285	981	-142	-368	31
-245	79	-82	-410	31
-211	-204	61	249	31
-199	381	149	546	31
-134	666	171	548	31
-42	-57	16	-370	31
92	-1820	-119	-1229	31
299	-2190	-64	-543	31
487	-1489	2	229	31
463	-460	64	-17	31
234	700	44	39	31
-31	669	60	184	31
-138	-142	99	143	31
-82	-462	29	424	31
29	-472	-95	403	31
161	337	-275	214	31
98	398	-350	-127	31
-155	684	-229	-11	31
-280	1144	143	96	31
-279	776	419	26	31
-237	132	366	-155	31
-50	-581	235	-388	31
160	-743	90	-21	31
160	-1420	-16	-110	31
60	-1112	-132	-154	31
204	46	-62	-12	31
175	815	64	128	31
-327	2030	-1	396	31
-401	1803	2	228	31
-155	156	-110	-173	31
36	-1587	-259	-463	31
274	-2071	-332	-153	31
449	-833	-194	127	31
550	12	146	73	31
185	110	-50	334	31
-44	445	-111	375	31
-9	805	120	325	31
-228	1525	144	517	31
-362	1040	125	-48	31
-315	-399	-42	-494	31
-46	-1465	-138	-694	31
247	-1884	-58	-891	31
358	-873	214	-251	31
247	-279	255	180	31
52	-178	69	82	31
-79	244	95	142	31
-160	267	237	393	31
-116	510	116	694	31
-122	447	-443	734	31
-160	308	-749	140	31
-128	355	-223	-486	31
-145	668	469	-436	31
-229	1415	471	-411	31
-339	1506	136	-473	31
-368	677	-2	-74	31
-175	-1051	-1	-86	31
78	-1849	-2	-93	31
309	-1200	57	155	31
479	-651	-84	60	31
347	-487	-330	163	31
207	-924	-295	245	31
209	-642	4	516	31
188	-148	90	985	31
83	-93	-201	792	31
-55	300	-130	8	31
-107	204	33	-1151	31
-165	206	144	-1657	31
-151	256	209	-171	31
-115	396	39	300	31
-206	1382	105	-388	31
-384	2165	78	138	31
-585	1790	65	-55	31
-539	77	214	12	31
-168	-1843	133	-70	31
-168	-1843	133	-70	31
-168	-1816	132	-58	31
-167	-1788	130	-46	31
-167	-1760	128	-34	31
-166	-1732	126	-22	31
-166	-1704	124	-9	31
-165	-1676	122	3	31
-164	-1649	120	15	31
-164	-1621	118	27	31
-163	-1593	117	39	31
-163	-1565	115	52	31
-162	-1537	113	64	31
-161	-1509	111	76	31
-161	-1481	109	88	31
-160	-1454	107	101	31
-160	-1426	105	113	31
-159	-1398	103	125	31
-159	-1370	101	137	31
-158	-1342	100	149	31
-157	-1314	98	162	31
-157	-1286	96	174	31
-156	-1259	94	186	31
-156	-1231	92	198	31
-155	-1203	90	210	31
-154	-1175	88	223	31
-154	-1147	86	235	31
-153	-1119	85	247	31
-153	-1092	83	259	31
-152	-1064	81	272	31
-152	-1036	79	284	31
-151	-1008	77	296	31
-150	-980	75	308	31
-150	-952	73	320	31
-149	-924	71	333	31
-149	-897	69	345	31
-148	-869	68	357	31
-147	-841	66	369	31
-147	-813	64	382	31
-146	-785	62	394	31
-146	-757	60	406	31
-145	-729	58	418	31
-145	-702	56	430	31
-144	-674	54	443	31
-143	-646	53	455	31
-143	-618	51	467	31
-142	-590	49	479	31
-142	-562	47	491	31
-141	-535	45	504	31
-140	-507	43	516	31
-140	-479	41	528	31
-139	-451	39	540	31
-139	-423	37	553	31
-138	-395	36	565	31
-138	-367	34	577	31
-137	-340	32	589	31
-136	-312	30	601	31
-136	-284	28	614	31
-135	-256	26	626	31
-135	-228	24	638	31
-134	-200	22	650	31
-133	-172	20	663	31
-145	-195	-17	507	31
-122	-116	-287	294	31
-145	-101	-127	-290	31
-62	-57	84	-666	31
-57	-19	27	-170	31
-39	-27	-13	586	31
-41	22	45	499	31
-54	-7	257	308	31
-33	24	204	108	31
-33	26	74	-353	31
-2	37	-1	-140	31
3	45	17	-400	31
0	30	93	-7	31
-6	44	-2	78	31
4	41	-129	-251	31
3	59	-259	729	31
-9	49	-213	1171	31
13	47	97	640	31
37	44	335	-613	31
37	32	196	-1084	31
27	45	154	-565	31
32	51	85	-409	31
6	47	-38	-221	31
-5	36	-28	-236	31
1	42	46	-477	31
6	53	310	-373	31
1	55	346	-7	31
-7	56	135	146	31
10	57	-233	114	31
-9	57	-424	238	31
-11	95	-386	241	31
-7	133	-350	312	31
-19	83	-256	234	31
-19	24	-8	-254	31
-22	17	130	24	31
18	79	127	203	31
58	60	-4	-157	31
54	-93	-327	-260	31
7	-157	-424	-395	31
-26	-34	-302	117	31
-67	489	32	731	31
-242	1550	117	658	31
-449	2087	218	444	31
-455	1188	388	300	31
-252	-519	208	397	31
117	-2002	179	373	31
529	-2037	133	438	31
696	-1274	-61	701	31
587	-1346	-52	656	31
341	-605	-27	-943	31
134	21	15	-2430	31
-23	-133	161	-547	31
-93	409	28	358	31
-50	449	-37	-132	31
-69	476	241	510	31
-213	416	400	363	31
-335	344	7	549	31
-378	469	-212	-386	31
-448	126	-75	-655	31
-355	-181	-97	181	31
-79	-308	-58	4	31
399	-108	-2	60	31
640	65	93	29	31
436	137	57	14	31
442	251	-21	367	31
216	133	-60	509	31
-66	60	-189	239	31
-29	457	-317	-362	31
-178	1267	-265	-1088	31
-211	1162	57	-568	31
-224	-34	-52	893	31
-178	-973	-256	1105	31
-11	-852	-54	555	31
-21	307	224	-971	31
-124	738	398	-1744	31
-221	297	158	-522	31
-125	236	-109	-244	31
17	-100	-148	-217	31
100	-163	58	-133	31
56	380	247	188	31
-90	337	34	468	31
-151	-157	-117	217	31
-39	-1044	-193	370	31
132	-1587	-156	-64	31
168	-724	230	-37	31
198	-136	504	57	31
212	-539	246	-300	31
117	-480	-294	-172	31
54	-392	-426	434	31
83	-365	-365	797	31
58	36	-415	516	31
35	330	-178	-125	31
16	523	241	-1299	31
-60	493	712	-1394	31
-101	391	772	-201	31
-150	239	39	264	31
-173	69	-343	166	31
-89	31	-129	938	31
-37	123	-67	1288	31
-19	208	-22	1021	31
20	155	-37	696	31
-33	145	-173	-527	31
-78	100	-159	-1290	31
-106	109	-26	-1216	31
-93	85	24	-538	31
-59	50	-69	256	31
-62	138	-200	-80	31
-31	270	-229	-371	31
-55	484	-130	-146	31
-56	588	206	224	31
-17	318	513	658	31
-20	-285	239	347	31
50	-445	156	-95	31
65	481	342	329	31
-129	1756	87	322	31
-413	1838	-151	30	31
-581	399	-372	200	31
-372	-1724	-420	539	31
125	-2243	-164	896	31
428	-960	-223	810	31
315	-159	-252	-446	31
181	-558	-20	-2273	31
227	-430	53	-386	31
415	-354	82	1269	31
476	-587	47	203	31
355	-499	164	410	31
375	-456	396	-86	31
220	-105	342	-262	31
31	569	156	-69	31
31	569	156	-69	31
30	560	156	-85	31
29	550	156	-101	31
28	540	156	-117	31
27	530	156	-134	31
26	520	156	-150	31
25	510	156	-166	31
24	500	156	-182	31
23	490	157	-199	31
22	480	157	-215	31
21	470	157	-231	31
20	460	157	-247	31
18	450	157	-264	31
17	440	157	-280	31
16	430	157	-296	31
15	420	158	-312	31
14	411	158	-329	31
13	401	158	-345	31
12	391	158	-361	31
11	381	158	-377	31
10	371	158	-394	31
9	361	158	-410	31
8	351	158	-426	31
7	341	159	-442	31
5	331	159	-459	31
4	321	159	-475	31
3	311	159	-491	31
2	301	159	-507	31
1	291	159	-524	31
0	281	159	-540	31
-1	271	160	-556	31
-2	262	160	-572	31
-3	252	160	-589	31
-4	242	160	-605	31
-5	232	160	-621	31
-6	222	160	-637	31
-8	212	160	-654	31
-9	202	160	-670	31
-10	192	161	-686	31
-11	182	161	-702	31
-12	172	161	-719	31
-13	162	161	-735	31
-14	152	161	-751	31
-15	142	161	-767	31
-16	132	161	-784	31
-17	122	162	-800	31
-18	113	162	-816	31
-19	103	162	-832	31
-21	93	162	-849	31
-22	83	162	-865	31
-23	73	162	-881	31
-24	63	162	-897	31
-25	53	162	-914	31
-26	43	163	-930	31
-27	33	163	-946	31
-28	23	163	-962	31
-29	13	163	-979	31
-30	3	163	-995	31
-31	-7	163	-1011	31
-32	-17	163	-1027	31
-34	-27	164	-1044	31
-79	-305	150	39	31
-47	-437	133	-24	31
-25	43	176	-180	31
-22	480	-12	-42	31
-120	206	-103	-46	31
-187	-57	-77	-1	31
132	-719	-135	-70	31
251	-720	-93	-2	31
156	2	-82	288	31
85	721	-2	529	31
-90	970	-58	753	31
-168	214	-333	534	31
-106	-671	-357	-194	31
80	-922	-84	-952	31
154	-232	297	-424	31
105	269	453	575	31
-10	322	306	37	31
-135	282	49	155	31
-57	-408	-128	-298	31
153	-844	-151	-971	31
178	-599	-17	226	31
33	161	28	-133	31
33	673	26	386	31
-53	431	-21	1843	31
-138	201	-355	973	31
-52	-182	-90	-38	31
125	-253	393	-1637	31
102	-26	225	-2192	31
-107	71	-145	-955	31
-137	158	-249	-152	31
-54	-91	-206	582	31
50	-33	-80	390	31
4	266	152	225	31
-2	-280	196	302	31
46	-563	234	352	31
27	-144	139	211	31
80	-337	13	-62	31
60	-422	-179	186	31
31	-432	-207	-190	31
31	-348	-91	109	31
42	194	-122	855	31
2	249	-22	727	31
-75	289	26	-106	31
-69	286	141	-468	31
-64	209	107	-55	31
-21	317	-14	-112	31
-87	267	28	-1056	31
-151	246	62	-625	31
-110	159	194	674	31
-84	131	62	1073	31
-37	130	-341	1149	31
53	170	-654	714	31
183	293	-705	332	31
59	410	-72	-353	31
-160	676	704	-1149	31
-234	832	801	-1164	31
-251	805	615	-1332	31
-131	454	256	-564	31
20	-400	-12	256	31
183	-1142	102	-224	31
284	-1148	245	310	31
170	-612	246	243	31
39	-128	-60	182	31
-24	-399	-334	242	31
-12	-728	-565	8	31
63	-189	-578	512	31
36	322	-251	259	31
-105	632	-131	-317	31
-176	413	-13	-370	31
-60	-338	70	447	31
10	-518	136	345	31
86	-334	287	-25	31
100	100	174	-177	31
-31	407	-74	-313	31
-58	390	-90	-45	31
-54	226	-24	-19	31
37	-138	-183	11	31
153	-224	-254	-399	31
166	-175	-67	-325	31
138	-34	113	172	31
49	284	135	957	31
-80	589	-66	1729	31
-145	463	-379	1454	31
-139	-60	-226	547	31
-104	-382	19	-900	31
-60	-371	275	-2244	31
-94	-119	505	-296	31
-17	-136	197	539	31
94	-396	43	-836	31
105	-233	-81	125	31
103	310	-54	437	31
50	599	105	587	31
-2	322	133	158	31
-42	-178	69	-108	31
8	-460	-53	65	31
98	-263	-28	-347	31
112	-49	-88	98	31
24	-51	80	-90	31
-62	53	148	-167	31
-62	53	148	-167	31
-62	56	148	-167	31
-62	59	149	-168	31
-63	62	150	-169	31
-63	66	150	-170	31
-64	69	151	-170	31
-64	72	152	-171	31
-65	75	152	-172	31
-65	79	153	-173	31
-66	82	154	-174	31
-66	85	154	-174	31
-67	89	155	-175	31
-67	92	156	-176	31
-68	95	156	-177	31
-68	98	157	-177	31
-69	102	158	-178	31
-69	105	158	-179	31
-69	108	159	-180	31
-70	112	160	-181	31
-70	115	160	-181	31
-71	118	161	-182	31
-71	121	162	-183	31
-72	125	163	-184	31
-72	128	163	-185	31
-73	131	164	-185	31
-73	135	165	-186	31
-74	138	165	-187	31
-74	141	166	-188	31
-75	144	167	-188	31
-75	148	167	-189	31
-76	151	168	-190	31
-76	154	169	-191	31
-76	158	169	-192	31
-77	161	170	-192	31
-77	164	171	-193	31
-78	167	171	-194	31
-78	171	172	-195	31
-79	174	173	-195	31
-79	177	173	-196	31
-80	181	174	-197	31
-80	184	175	-198	31
-81	187	176	-199	31
-81	190	176	-199	31
-82	194	177	-200	31
-82	197	178	-201	31
-83	200	178	-202	31
-83	204	179	-203	31
-83	207	180	-203	31
-84	210	180	-204	31
-84	213	181	-205	31
-85	217	182	-206	31
-85	220	182	-206	31
-86	223	183	-207	31
-86	227	184	-208	31
-87	230	184	-209	31
-87	233	185	-210	31
-88	236	186	-210	31
-88	240	186	-211	31
-89	243	187	-212	31
-89	246	188	-213	31
-90	250	189	-214	31
-125	-364	86	491	31
51	-809	-133	103	31
249	-597	21	-401	31
156	-39	322	-466	31
41	-82	421	-281	31
-77	-7	130	241	31
-80	95	-122	-264	31
-87	220	-121	346	31
-110	370	-264	200	31
-118	64	-11	65	31
-90	-228	66	312	31
45	-656	-74	-117	31
79	-439	-107	-170	31
145	79	-237	-335	31
102	76	-118	-94	31
-45	228	-54	32	31
-32	89	45	182	31
-45	-36	31	245	31
-39	29	-96	175	31
-41	100	-90	254	31
-92	303	-50	509	31
-129	147	-4	-128	31
-150	-116	8	-1072	31
-55	-260	49	-383	31
75	-82	84	-103	31
70	168	195	-153	31
-103	55	177	173	31
-142	27	59	211	31
-15	131	6	445	31
26	280	59	-112	31
54	188	217	-416	31
16	-126	220	-171	31
90	-254	89	138	31
221	-262	-72	482	31
176	-142	-312	180	31
175	59	-607	33	31
158	254	-503	74	31
39	220	-23	-126	31
-139	122	269	-196	31
-161	176	234	-92	31
-173	216	209	-231	31
-146	31	244	128	31
19	-414	149	-87	31
80	-526	125	-97	31
132	-319	52	-6	31
108	36	72	-288	31
47	99	172	300	31
29	-252	10	47	31
60	-300	-323	271	31
90	-201	-428	355	31
11	-31	-168	-1	31
-55	12	19	161	31
-74	54	12	4	31
-68	79	0	23	31
-89	8	-15	128	31
-116	175	-112	312	31
-90	269	-45	183	31
-115	364	67	-179	31
-153	323	125	-494	31
-120	175	46	-272	31
-53	223	-161	132	31
55	409	-145	593	31
113	287	4	581	31
89	-371	12	-234	31
66	-734	-60	-1223	31
69	-592	36	-1507	31
42	-203	265	-129	31
-14	-9	322	507	31
2	-52	122	328	31
36	141	-31	239	31
12	341	15	278	31
0	275	139	137	31
-34	-92	-26	-255	31
-90	-328	-404	73	31
-54	-277	-439	143	31
-5	-109	-259	145	31
-18	103	-38	276	31
-26	109	421	292	31
4	194	542	291	31
16	570	458	-6	31
-52	825	327	-197	31
-112	400	-236	-249	31
-102	-241	-395	-252	31
-42	-259	-247	-364	31
-57	214	-84	-263	31
-26	184	-27	40	31
89	-437	-95	-105	31
110	-496	20	-19	31
306	-443	45	200	31
286	-624	61	259	31
101	-527	-16	198	31
100	-332	-44	-19	31
10	-191	-93	74	31
69	-72	-210	85	31
138	62	-75	39	31
11	136	-91	34	31
-50	171	-75	-117	31
-14	155	11	72	31
-85	126	28	22	31
-102	125	93	126	31
-49	93	-63	572	31
-115	81	-131	-175	31
-120	136	-185	-563	31
-111	258	-148	-547	31
-100	431	236	-196	31
-100	619	424	1209	31
-101	454	333	634	31
-75	16	180	-342	31
-40	-204	82	-474	31
69	-394	41	-682	31
107	-371	67	-683	31
80	-294	63	-386	31
81	-238	32	416	31
90	10	-31	150	31
56	-62	-219	256	31
-1	-37	-173	-53	31
4	54	-20	-302	31
-21	77	36	161	31
-84	165	-9	183	31
-112	126	-127	497	31
-112	143	-52	-168	31
-99	7	47	-399	31
-80	-108	29	65	31
14	-88	6	94	31
115	-35	-6	29	31
28	52	43	417	31
-127	41	34	1188	31
-158	34	-135	1027	31
-113	4	-321	-72	31
-40	-12	-217	-984	31
74	-26	479	-1100	31
204	-33	660	-33	31
247	-4	156	411	31
116	27	-141	-400	31
-49	75	-453	-391	31
-125	95	-310	-270	31
-208	207	2	2	31
-104	275	-22	481	31
94	140	-27	418	31
195	-117	-64	3	31
77	-449	2	-914	31
-85	-371	211	-1098	31
-118	-49	140	567	31
-155	-27	-107	649	31
103	20	-26	148	31
315	57	64	375	31
416	45	56	-324	31
289	51	48	-257	31
-122	60	-20	-175	31
-137	234	-38	45	31
-125	268	-120	2	31
-113	69	-113	-41	31
24	-128	-25	330	31
-8	-156	44	390	31
-98	-24	44	446	31
-107	-65	17	248	31
-128	-292	10	461	31
-150	-290	-67	374	31
163	-92	15	-105	31
420	44	12	-464	31
250	70	-50	-949	31
7	12	-41	-1263	31
-151	-37	149	-158	31
-409	-29	317	800	31
-709	34	-79	391	31
-720	60	-443	802	31
-386	111	-613	1714	31
-204	246	-518	1608	31
-29	404	-27	61	31
403	446	580	-2162	31
405	17	762	-2341	31
-23	-495	538	-595	31
364	-393	368	1231	31
1350	-156	151	1357	31
813	-12	-11	251	31
29	300	-269	-63	31
170	237	-291	-1111	31
53	-156	-32	-893	31
112	-394	-29	491	31
61	-403	51	-97	31
18	-297	165	501	31
-62	-120	158	1007	31
-314	75	50	1067	31
-451	108	-243	338	31
-785	161	-314	-848	31
-551	229	-259	-416	31
35	204	-322	805	31
348	97	-551	1126	31
487	40	-242	-1245	31
469	-2	610	-1977	31
-21	-37	737	-938	31
-481	252	466	-150	31
-446	540	36	100	31
-558	356	-433	-138	31
-488	49	-361	-34	31
-239	-55	-237	3	31
-55	-249	-118	592	31
29	-428	148	364	31
171	-614	214	-236	31
380	-804	399	-337	31
268	-370	318	536	31
538	109	-170	313	31
557	151	-203	-576	31
-149	107	-191	-479	31
-298	-59	-290	-562	31
-357	-63	-296	310	31
-438	71	-459	566	31
-267	75	-370	-20	31
-805	148	-75	228	31
-1103	533	297	216	31
-537	865	519	-372	31
-130	673	264	-537	31
502	338	21	-365	31
1524	120	128	331	31
1373	-407	290	648	31
191	-730	407	888	31
416	-542	600	118	31
984	-685	471	-857	31
673	-435	-50	-360	31
792	-33	-602	-784	31
264	-97	-882	-175	31
-468	7	-538	-281	31
-317	-37	14	-394	31
-322	24	-7	916	31
-308	90	-51	186	31
-421	92	-9	576	31
-696	133	-234	-25	31
-761	40	-151	-535	31
-707	165	-11	951	31
-426	382	85	224	31
-535	447	219	-325	31
-245	184	199	-905	31
589	-11	208	-572	31
446	-50	336	142	31
155	-53	483	-626	31
474	-9	432	252	31
677	-178	261	762	31
501	-47	130	575	31
506	109	-73	1202	31
95	21	-596	1662	31
-762	34	-828	772	31
-783	-118	-470	-1508	31
-725	-188	104	-2071	31
-601	-186	605	-471	31
117	-138	471	131	31
936	61	45	-423	31
722	-16	-446	-559	31
219	34	-532	-578	31
291	141	-387	136	31
-4	72	-330	1161	31
-238	170	106	1014	31
-180	179	164	200	31
-75	210	174	45	31
-411	205	362	439	31
-553	102	168	-399	31
-315	43	-39	-797	31
-711	-11	-191	570	31
-869	343	-22	838	31
-355	596	489	611	31
-27	408	381	216	31
223	133	-80	-893	31
901	-375	-252	-1550	31
1071	-831	-343	-1035	31
772	-866	-177	110	31
1050	-606	-96	50	31
683	-515	-132	139	31
141	-278	-131	883	31
115	77	-123	1576	31
-348	128	402	1437	31
-398	383	898	-265	31
-247	449	894	-1393	31
-219	244	612	-978	31
-222	73	95	-774	31
-444	-88	-573	-902	31
-224	15	-1066	6	31
155	-44	-858	523	31
144	-225	-87	550	31
44	-115	31	482	31
108	-13	-420	39	31
-239	226	-448	115	31
-795	421	-515	133	31
-908	159	-428	749	31
-742	-293	-82	567	31
-379	-540	395	-727	31
624	-209	701	-601	31
1513	77	611	-73	31
729	50	702	50	31
156	223	726	-213	31
254	199	620	-582	31
-377	26	-55	-263	31
-415	11	-858	-266	31
-315	112	-767	-116	31
-170	248	-51	613	31
285	36	818	974	31
215	-83	770	1093	31
-30	3	60	282	31
-307	447	-619	-1382	31
-513	766	-1346	-1651	31
-726	178	-1342	-110	31
-502	-326	-364	386	31
219	-819	569	96	31
599	-824	560	252	31
239	-324	68	-17	31
124	-214	-61	189	31
360	98	73	405	31
279	110	178	203	31
410	-52	118	136	31
289	-14	62	101	31
105	-48	0	110	31
165	35	-13	-42	31
31	-36	295	-305	31
14	8	314	-495	31
77	109	374	-4	31
-199	133	489	506	31
-352	193	-11	797	31
-256	74	-419	852	31
-352	9	-568	194	31
-117	39	-441	-799	31
348	345	116	-1295	31
350	785	373	-122	31
-27	679	371	309	31
-189	143	196	-252	31
-206	-477	-233	-34	31
-143	-708	-402	354	31
-2	-493	-297	765	31
-57	-537	-103	-54	31
-8	-477	134	-698	31
185	-117	322	-304	31
160	28	391	64	31
-57	60	264	186	31
-14	84	143	131	31
-58	93	37	346	31
-139	100	-58	288	31
-21	97	196	-94	31
-19	86	247	-363	31
-31	97	311	-563	31
-163	240	291	-155	31
-144	475	-454	168	31
-128	508	-740	117	31
-128	508	-740	117	31
-126	498	-729	115	31
-123	488	-718	113	31
-120	477	-706	110	31
-118	467	-695	108	31
-115	456	-683	106	31
-112	446	-672	103	31
-110	435	-661	101	31
-107	425	-649	99	31
-104	414	-638	96	31
-102	404	-626	94	31
-99	393	-615	92	31
-96	383	-604	89	31
-94	372	-592	87	31
-91	362	-581	85	31
-88	351	-569	82	31
-86	341	-558	80	31
-83	331	-547	78	31
-80	320	-535	75	31
-78	310	-524	73	31
-75	299	-512	70	31
-72	289	-501	68	31
-69	278	-490	66	31
-67	268	-478	63	31
-64	257	-467	61	31
-61	247	-455	59	31
-59	236	-444	56	31
-56	226	-433	54	31
-53	215	-421	52	31
-51	205	-410	49	31
-48	194	-398	47	31
-45	184	-387	45	31
-43	174	-376	42	31
-40	163	-364	40	31
-37	153	-353	38	31
-35	142	-341	35	31
-32	132	-330	33	31
-29	121	-319	31	31
-27	111	-307	28	31
-24	100	-296	26	31
-21	90	-284	23	31
-18	79	-273	21	31
-16	69	-262	19	31
-13	58	-250	16	31
-10	48	-239	14	31
-8	37	-227	12	31
-5	27	-216	9	31
-2	17	-205	7	31
0	6	-193	5	31
3	-4	-182	2	31
6	-15	-170	0	31
8	-25	-159	-2	31
11	-36	-148	-5	31
14	-46	-136	-7	31
16	-57	-125	-9	31
19	-67	-113	-12	31
22	-78	-102	-14	31
24	-88	-91	-16	31
27	-99	-79	-19	31
30	-109	-68	-21	31
33	-120	-56	-24	31
256	-80	34	-9	31
183	241	-103	-123	31
-50	311	-26	-92	31
-94	351	49	-166	31
-203	119	-2	-222	31
-249	-353	85	34	31
-56	-90	167	225	31
175	551	185	8	31
563	457	76	95	31
370	-208	-57	180	31
63	-741	-111	219	31
125	-761	-19	9	31
68	-74	0	-242	31
33	286	-89	-159	31
-117	296	-110	-36	31
-190	371	-71	62	31
-185	77	21	84	31
-181	-211	41	127	31
-95	-374	-5	-55	31
136	-320	-87	-103	31
67	-9	-95	-103	31
-280	340	-32	-194	31
-171	483	120	-145	31
-157	166	271	13	31
-106	-282	270	455	31
110	-440	-42	955	31
464	-294	-500	875	31
550	-168	-478	-7	31
17	-83	-92	-257	31
-16	124	300	13	31
-128	232	253	-722	31
-270	89	41	-656	31
-250	-96	-82	-114	31
-292	-129	-155	-717	31
-4	-14	289	-777	31
106	-24	466	-612	31
266	-21	269	-248	31
305	74	-230	218	31
151	59	-494	446	31
75	191	-269	684	31
-105	353	-177	554	31
-161	524	210	741	31
-188	431	236	562	31
-304	-10	-7	-132	31
27	-122	-93	-443	31
285	-141	-59	-80	31
97	-249	127	-11	31
96	-369	145	-233	31
31	-408	150	-157	31
31	-408	150	-157	31
34	-403	144	-157	31
37	-398	137	-157	31
40	-393	130	-156	31
44	-388	123	-156	31
47	-383	116	-156	31
50	-378	109	-155	31
53	-373	102	-155	31
57	-368	95	-155	31
60	-363	88	-154	31
63	-358	81	-154	31
66	-353	74	-154	31
70	-348	67	-153	31
73	-343	60	-153	31
76	-338	53	-152	31
79	-333	46	-152	31
83	-328	39	-152	31
86	-323	32	-151	31
89	-318	25	-151	31
92	-313	18	-151	31
96	-308	11	-150	31
99	-303	4	-150	31
102	-298	-3	-150	31
105	-293	-10	-149	31
109	-287	-17	-149	31
112	-282	-24	-149	31
115	-277	-31	-148	31
118	-272	-38	-148	31
122	-267	-45	-147	31
125	-262	-52	-147	31
128	-257	-59	-147	31
131	-252	-66	-146	31
135	-247	-73	-146	31
138	-242	-80	-146	31
141	-237	-87	-145	31
145	-232	-94	-145	31
148	-227	-100	-145	31
151	-222	-107	-144	31
154	-217	-114	-144	31
158	-212	-121	-144	31
161	-207	-128	-143	31
164	-202	-135	-143	31
167	-197	-142	-142	31
171	-192	-149	-142	31
174	-187	-156	-142	31
177	-182	-163	-141	31
180	-177	-170	-141	31
184	-171	-177	-141	31
187	-166	-184	-140	31
190	-161	-191	-140	31
193	-156	-198	-140	31
197	-151	-205	-139	31
200	-146	-212	-139	31
203	-141	-219	-139	31
206	-136	-226	-138	31
210	-131	-233	-138	31
213	-126	-240	-137	31
216	-121	-247	-137	31
219	-116	-254	-137	31
223	-111	-261	-136	31
226	-106	-268	-136	31
229	-101	-275	-136	31
232	-96	-282	-135	31
236	-91	-289	-135	31
239	-86	-296	-135	31
242	-81	-303	-134	31
245	-76	-310	-134	31
249	-71	-317	-134	31
252	-66	-324	-133	31
255	-61	-331	-133	31
259	-55	-338	-132	31
4	-3	-375	-237	31
27	35	-221	125	31
44	13	-7	-282	31
-28	7	192	-631	31
115	12	221	324	31
26	-23	7	461	31
2	-14	-77	-197	31
57	13	-65	-131	31
-50	-27	20	-133	31
-99	1	108	11	31
-4	57	15	108	31
50	117	21	20	31
-2	147	39	406	31
-73	56	163	57	31
-193	-75	158	-351	31
-231	-79	-65	-249	31
-141	85	-239	561	31
-78	229	-284	1055	31
-24	143	-133	294	31
1	-42	-33	69	31
-11	-132	-6	-180	31
115	-150	34	-751	31
236	-92	44	-674	31
67	108	60	-777	31
-274	203	80	-451	31
-390	14	24	32	31
-231	-29	5	138	31
83	112	9	310	31
342	33	-64	96	31
102	-237	-136	359	31
-98	-500	-287	357	31
120	-580	-163	-98	31
511	-168	249	69	31
619	142	363	177	31
120	-12	130	-63	31
-78	-79	-65	145	31
53	-116	-12	100	31
-36	-47	202	-306	31
-41	72	407	80	31
71	126	254	254	31
50	167	-49	-137	31
-148	79	-233	-528	31
-173	116	-168	-276	31
-211	100	30	622	31
-266	34	-53	861	31
-241	58	-209	406	31
-210	97	-234	-162	31
-181	178	-65	-476	31
-409	112	104	-623	31
-292	11	103	-188	31
116	-21	41	482	31
522	20	-65	625	31
678	26	-194	180	31
167	-45	42	-611	31
-1	-43	183	-469	31
85	-53	-98	-668	31
-86	-24	-101	-591	31
62	-5	-132	-57	31
131	-10	-4	-176	31
-10	23	178	252	31
-55	-2	86	-12	31
-32	3	90	-75	31
48	-5	54	137	31
141	15	57	90	31
103	127	44	344	31
-123	189	12	194	31
-166	109	-65	277	31
-261	-22	-143	187	31
-299	-54	-132	190	31
-119	-47	-128	203	31
45	-139	-94	87	31
221	-219	-77	14	31
80	-93	-15	-163	31
3	-72	59	-28	31
-75	-37	190	-325	31
-161	219	256	-146	31
-59	242	231	105	31
-172	156	214	-296	31
-41	14	37	254	31
-41	14	37	254	31
-37	14	37	254	31
-32	14	37	253	31
-27	14	37	252	31
-22	13	37	251	31
-17	13	37	250	31
-12	13	37	249	31
-7	12	38	248	31
-3	12	38	247	31
2	12	38	247	31
7	11	38	246	31
12	11	38	245	31
17	11	38	244	31
22	11	39	243	31
27	10	39	242	31
32	10	39	241	31
36	10	39	240	31
41	9	39	239	31
46	9	39	239	31
51	9	39	238	31
56	8	40	237	31
61	8	40	236	31
66	8	40	235	31
71	8	40	234	31
75	7	40	233	31
80	7	40	232	31
85	7	41	231	31
90	6	41	231	31
95	6	41	230	31
100	6	41	229	31
105	5	41	228	31
110	5	41	227	31
114	5	42	226	31
119	5	42	225	31
124	4	42	224	31
129	4	42	223	31
134	4	42	223	31
139	3	42	222	31
144	3	42	221	31
148	3	43	220	31
153	2	43	219	31
158	2	43	218	31
163	2	43	217	31
168	2	43	216	31
173	1	43	216	31
178	1	44	215	31
183	1	44	214	31
187	0	44	213	31
192	0	44	212	31
197	0	44	211	31
202	-1	44	210	31
207	-1	45	209	31
212	-1	45	208	31
217	-1	45	208	31
222	-2	45	207	31
226	-2	45	206	31
231	-2	45	205	31
236	-3	45	204	31
241	-3	46	203	31
246	-3	46	202	31
251	-4	46	201	31
256	-4	46	200	31
261	-4	46	200	31
265	-4	46	199	31
270	-5	47	198	31
275	-5	47	197	31
280	-5	47	196	31
285	-6	47	195	31
290	-6	47	194	31
295	-6	47	193	31
300	-7	48	192	31
140	-7	24	363	31
433	66	9	549	31
114	172	-50	135	31
-224	-50	44	-324	31
-188	-168	112	-260	31
-180	-136	234	166	31
27	-44	296	718	31
120	45	124	67	31
249	67	-42	-407	31
262	-17	-167	-9	31
-35	-145	-155	208	31
-34	-95	-54	472	31
255	-39	58	229	31
203	12	54	-137	31
65	46	50	-257	31
85	75	38	-125	31
24	87	31	190	31
-33	25	5	164	31
-63	-35	-138	53	31
-113	-26	-112	70	31
-122	40	-133	456	31
-82	9	-213	530	31
-138	23	-221	54	31
-191	59	-157	-527	31
-223	5	-59	-748	31
-206	-16	67	-789	31
-43	8	216	-145	31
26	55	173	957	31
26	24	66	613	31
-19	-29	67	-542	31
-45	132	103	-933	31
2	520	-70	-130	31
-18	566	-115	365	31
5	110	21	196	31
21	-351	116	130	31
110	-747	179	-233	31
199	-513	57	-176	31
79	-14	-48	170	31
1	-87	-32	146	31
-11	-55	-4	-38	31
46	-74	-74	-238	31
60	-156	-88	-118	31
-37	-44	96	16	31
-87	-50	141	221	31
-150	-16	-9	465	31
-160	3	-134	31	31
-103	42	-171	-72	31
-50	76	-54	132	31
32	84	-37	171	31
91	110	-238	69	31
107	88	-140	-641	31
130	90	27	-340	31
110	73	28	140	31
50	56	39	277	31
42	34	74	522	31
11	75	250	220	31
-52	189	360	-77	31
-107	246	332	-267	31
-149	230	77	57	31
-142	108	-158	125	31
-98	-105	-224	-325	31
2	-152	-358	-228	31
85	-97	-241	271	31
14	-191	-20	80	31
-75	-188	-41	-54	31
5	-157	-21	-161	31
60	-133	-20	-226	31
13	16	-128	110	31
27	-11	-98	-98	31
54	-51	138	-110	31
-72	-37	406	95	31
-204	-86	358	898	31
-72	-51	-41	878	31
79	-45	-112	-201	31
148	44	57	-1018	31
53	89	39	-1480	31
-115	64	-95	-611	31
-10	139	-269	-165	31
208	54	-242	236	31
186	14	-146	468	31
-6	19	37	315	31
-59	17	170	532	31
-154	70	135	454	31
-17	24	86	762	31
84	27	52	344	31
183	4	58	-672	31
393	-1	114	-909	31
60	42	62	-257	31
-1	57	-123	53	31
44	80	-19	-113	31
-83	24	113	116	31
-47	-7	175	297	31
-88	-16	163	339	31
-60	8	-10	53	31
-41	85	-113	92	31
-67	82	-333	375	31
-155	14	-365	226	31
-155	-61	-167	-185	31
-108	-179	39	-622	31
-57	-270	222	-86	31
18	-175	181	95	31
-28	-42	89	-417	31
6	0	-81	-23	31
75	52	-115	180	31
78	110	-21	262	31
33	144	-90	221	31
29	81	-80	100	31
55	-78	62	-76	31
87	-150	254	-170	31
82	-68	178	498	31
-46	10	-43	645	31
-166	-26	-50	219	31
-233	-9	-5	-875	31
-167	27	-10	-1244	31
-13	23	-123	-96	31
130	55	-35	-50	31
108	43	102	-31	31
10	59	37	151	31
77	66	22	137	31
72	79	-46	451	31
32	133	-82	193	31
15	125	-29	-24	31
44	95	4	-326	31
76	-54	30	-133	31
-29	-167	10	148	31
-121	-67	-61	65	31
-109	-6	-116	175	31
8	16	-138	31	31
-15	0	-50	1	31
-57	-129	110	-39	31
-71	-65	175	-63	31
-72	0	99	-25	31
-10	-148	-10	18	31
-42	-179	-50	-6	31
80	-24	-112	2	31
174	345	-19	77	31
32	707	84	-2	31
-62	648	22	88	31
-117	235	-18	-128	31
-167	-252	-92	-393	31
-85	-703	-14	-256	31
-12	-694	256	-271	31
64	-462	290	251	31
185	-511	-101	1046	31
22	-244	-401	607	31
-344	31	-218	112	31
-461	55	109	-309	31
-237	143	254	-515	31
38	126	231	-108	31
189	88	64	-132	31
110	-41	-75	70	31
-11	-2	-38	150	31
355	185	-51	343	31
878	150	-81	273	31
516	-21	-226	-216	31
-107	-59	-222	-482	31
-201	138	29	-299	31
-36	207	65	-282	31
213	187	234	-671	31
71	107	370	-32	31
-37	-59	271	102	31
-105	-24	-14	220	31
-242	78	-289	451	31
-71	94	-342	320	31
2	69	-294	269	31
26	32	6	-31	31
-72	29	173	259	31
-157	32	69	310	31
-144	-32	60	-143	31
-203	-100	160	-1173	31
-112	-100	308	-948	31
-249	40	198	593	31
-194	145	-188	400	31
47	-45	-348	279	31
-121	-268	-189	354	31
185	-203	-50	136	31
871	22	-103	179	31
726	74	-74	-296	31
90	69	-36	-412	31
-27	40	45	-204	31
-32	-4	219	426	31
-156	11	102	671	31
-201	-17	-210	132	31
-358	36	-282	-222	31
-322	82	-69	-629	31
-238	65	161	-349	31
-117	31	115	239	31
173	2	19	108	31
186	11	187	-62	31
26	-8	262	-213	31
26	-19	200	-99	31
57	-39	-127	205	31
41	-21	-275	234	31
26	24	84	436	31
11	49	227	312	31
29	108	159	-106	31
-41	152	54	216	31
-145	59	-118	218	31
-179	-125	-253	-560	31
-164	-201	-318	-279	31
-98	-91	-289	-34	31
-52	-2	-123	-206	31
74	-46	-95	-155	31
194	-36	-180	88	31
3	19	-21	208	31
-127	102	240	-871	31
-57	131	448	-1099	31
-34	21	342	-342	31
14	-137	146	1310	31
-11	-188	9	1332	31
-6	-60	-221	-304	31
-59	5	-147	-264	31
-141	30	-58	-567	31
-72	-12	-49	-54	31
-9	-88	131	358	31
100	-6	255	237	31
233	34	115	577	31
180	24	-92	274	31
-24	68	-108	-9	31
-52	87	-132	-482	31
-94	55	-113	-459	31
-242	52	10	113	31
-294	-11	169	694	31
-302	-111	232	1118	31
-2	-90	71	818	31
490	-64	-171	-379	31
753	6	-199	-1299	31
420	26	-127	-1057	31
-124	-6	-55	-557	31
-95	-12	136	-509	31
84	-85	78	-324	31
117	-64	16	-7	31
-61	-27	-35	140	31
-282	78	-114	227	31
-369	236	-41	312	31
-320	144	-57	388	31
1	-42	50	238	31
94	-69	47	145	31
500	-12	-1	158	31
641	-42	-18	35	31
41	-32	-153	-124	31
-12	27	-71	-261	31
-60	52	-37	-247	31
-153	138	-32	-91	31
-54	127	23	192	31
-126	60	-45	391	31
-101	-16	88	329	31
-79	-150	310	214	31
-30	-132	229	176	31
-53	-81	89	156	31
-101	-88	97	-193	31
-74	-41	-35	-343	31
-17	33	-171	-151	31
91	141	-208	-135	31
-7	246	-138	33	31
-130	260	52	156	31
-138	229	58	108	31
-178	148	54	64	31
-128	-17	39	-12	31
-22	-206	-44	34	31
122	-423	-93	-29	31
217	-492	-84	-99	31
163	-315	59	-98	31
174	-158	118	-58	31
113	-48	77	-17	31
-37	38	-16	123	31
-37	54	-124	244	31
-10	17	-171	57	31
-88	-4	-155	65	31
-106	29	-93	156	31
-34	52	27	143	31
-63	115	89	29	31
-51	301	34	-161	31
-79	751	85	166	31
-169	1058	134	190	31
-163	662	116	-309	31
-176	-45	12	41	31
-129	-811	-128	552	31
57	-1195	-34	-346	31
167	-664	161	-1402	31
107	-237	125	-812	31
156	-185	-81	-309	31
240	-87	-74	-339	31
199	-171	51	149	31
137	-175	166	319	31
63	-97	68	260	31
9	-6	-102	117	31
-21	85	-44	96	31
-49	101	-156	163	31
-62	176	-166	156	31
-82	322	-64	158	31
-62	645	2	86	31
-57	860	49	238	31
-156	445	54	46	31
-120	-204	42	-47	31
17	-652	-58	-1	31
125	-777	-19	-48	31
187	-258	-32	251	31
64	178	-69	282	31
-90	644	-82	339	31
-172	1416	-34	379	31
-214	1097	44	138	31
-221	-70	4	108	31
-71	-1288	86	-249	31
194	-1745	214	-742	31
315	-881	350	-630	31
276	-289	226	-175	31
96	-147	-208	95	31
-11	332	-375	67	31
-44	608	-254	1	31
-166	876	-50	129	31
-204	1292	82	229	31
-186	918	125	46	31
-130	-79	114	38	31
77	-1163	29	-78	31
302	-1728	79	-82	31
253	-740	257	-71	31
155	-171	232	-139	31
113	-424	-108	79	31
4	-243	-330	-9	31
69	-219	-269	-66	31
53	113	-93	-161	31
-31	179	-4	7	31
-74	153	-10	189	31
-91	298	93	214	31
11	217	27	196	31
-9	295	-109	-67	31
-59	168	-146	138	31
-66	150	-127	-18	31
-67	148	14	-258	31
-60	182	46	-120	31
-89	371	51	9	31
-107	487	-85	92	31
-99	490	-111	67	31
-80	227	147	142	31
-39	-131	167	24	31
34	-401	132	-91	31
70	-270	97	-247	31
12	9	42	-291	31
-112	709	89	-5	31
-222	1477	72	-109	31
-279	993	23	-36	31
-226	-100	-153	163	31
-6	-1306	-179	100	31
233	-1625	-104	372	31
297	-244	-150	660	31
211	848	-56	590	31
60	1059	14	19	31
-72	786	107	-598	31
-135	-34	236	-474	31
-170	-1028	265	-151	31
-54	-1319	50	-224	31
269	-1122	-250	-120	31
335	-335	-133	6	31
71	993	127	-7	31
-30	179	256	128	31
6	-899	122	-57	31
120	-1085	-121	-319	31
202	-1066	-262	70	31
165	-221	-370	242	31
16	-125	-264	126	31
-46	77	-49	100	31
77	294	233	-371	31
39	204	431	-312	31
-45	355	439	182	31
-73	237	243	57	31
-94	302	44	-45	31
-113	293	-153	-92	31
-118	353	-474	-276	31
-124	400	-451	-203	31
-145	274	-306	55	31
-115	212	-11	674	31
-42	162	242	645	31
22	447	249	383	31
-42	1146	274	504	31
-165	1620	54	-151	31
-275	1564	-19	-393	31
-372	1169	-145	-336	31
-250	-381	-337	-102	31
29	-1699	-146	-19	31
281	-1874	-2	-313	31
459	-1202	188	94	31
431	75	287	-156	31
182	-373	57	-191	31
-34	-1190	-214	128	31
69	-1439	-179	84	31
224	-950	19	122	31
203	184	39	81	31
39	761	-44	737	31
-178	1914	-100	983	31
-249	1507	19	83	31
-249	8	132	-916	31
-202	-423	145	-916	31
-118	-95	105	-532	31
-115	714	11	-431	31
-138	-236	6	-48	31
-24	-1405	26	2	31
262	-1038	87	-46	31
409	-275	105	-91	31
409	-275	105	-91	31
407	-273	105	-88	31
404	-270	106	-85	31
401	-268	106	-82	31
398	-265	107	-78	31
395	-263	108	-75	31
393	-260	108	-72	31
390	-258	109	-69	31
387	-255	110	-65	31
384	-252	110	-62	31
381	-250	111	-59	31
379	-247	112	-56	31
376	-245	112	-52	31
373	-242	113	-49	31
370	-240	114	-46	31
367	-237	114	-43	31
364	-235	115	-39	31
362	-232	116	-36	31
359	-229	116	-33	31
356	-227	117	-30	31
353	-224	118	-26	31
350	-222	118	-23	31
348	-219	119	-20	31
345	-217	119	-17	31
342	-214	120	-13	31
339	-212	121	-10	31
336	-209	121	-7	31
333	-206	122	-4	31
331	-204	123	0	31
328	-201	123	3	31
325	-199	124	6	31
322	-196	125	10	31
319	-194	125	13	31
317	-191	126	16	31
314	-189	127	19	31
311	-186	127	23	31
308	-183	128	26	31
305	-181	129	29	31
302	-178	129	32	31
300	-176	130	36	31
297	-173	131	39	31
294	-171	131	42	31
291	-168	132	45	31
288	-165	132	49	31
286	-163	133	52	31
283	-160	134	55	31
280	-158	134	58	31
277	-155	135	62	31
274	-153	136	65	31
271	-150	136	68	31
269	-148	137	71	31
266	-145	138	75	31
263	-142	138	78	31
260	-140	139	81	31
257	-137	140	84	31
255	-135	140	88	31
252	-132	141	91	31
249	-130	142	94	31
246	-127	142	97	31
243	-125	143	101	31
240	-122	144	104	31
238	-119	144	107	31
235	-117	145	111	31
232	-114	145	114	31
229	-112	146	117	31
226	-109	147	120	31
224	-107	147	124	31
221	-104	148	127	31
218	-102	149	130	31
215	-99	149	133	31
212	-96	150	137	31
210	-94	151	140	31
207	-91	151	143	31
204	-89	152	146	31
201	-86	153	150	31
198	-84	153	153	31
195	-81	154	156	31
193	-79	155	159	31
190	-76	155	163	31
187	-73	156	166	31
184	-71	157	169	31
181	-68	157	172	31
179	-66	158	176	31
176	-63	158	179	31
173	-61	159	182	31
170	-58	160	185	31
167	-55	160	189	31
164	-53	161	192	31
162	-50	162	195	31
159	-48	162	198	31
156	-45	163	202	31
153	-43	164	205	31
150	-40	164	208	31
148	-38	165	212	31
145	-35	166	215	31
142	-32	166	218	31
139	-30	167	221	31
136	-27	168	225	31
133	-25	168	228	31
131	-22	169	231	31
128	-20	170	234	31
125	-17	170	238	31
122	-15	171	241	31
119	-12	171	244	31
117	-9	172	247	31
114	-7	173	251	31
111	-4	173	254	31
108	-2	174	257	31
105	1	175	260	31
102	3	175	264	31
100	6	176	267	31
97	8	177	270	31
94	11	177	273	31
91	14	178	277	31
88	16	179	280	31
86	19	179	283	31
83	21	180	286	31
80	24	181	290	31
77	26	181	293	31
74	29	182	296	31
71	32	183	300	31
62	30	-125	434	31
-13	145	-348	403	31
-30	54	-403	256	31
-37	118	7	76	31
-26	69	259	4	31
-3	54	-64	295	31
-2	83	-598	-362	31
-11	36	-402	-685	31
11	87	-51	186	31
23	37	201	-193	31
34	67	343	-641	31
44	33	381	-737	31
27	1	467	147	31
3	3	269	305	31
-8	-13	209	-80	31
-9	2	29	627	31
-21	-20	-256	-177	31
-29	-4	-335	-183	31
-40	-30	-327	18	31
-58	-32	-160	-205	31
-59	-11	57	235	31
-40	17	54	322	31
-22	72	-22	595	31
-24	107	-124	516	31
-19	117	-204	65	31
-21	31	-112	-543	31
-17	-92	-18	-815	31
36	-196	151	-295	31
42	-80	175	166	31
-53	619	87	114	31
-365	1816	-90	249	31
-726	1884	-306	463	31
-734	154	-198	767	31
-396	-2005	2	785	31
199	-2180	98	11	31
832	-983	232	-1103	31
944	88	315	-481	31
474	619	137	453	31
388	728	81	-279	31
494	540	-35	521	31
304	556	-396	-186	31
264	212	-351	-931	31
9	11	118	-568	31
-21	-99	604	-567	31
67	151	469	492	31
-137	567	40	-628	31
-183	315	93	-80	31
-299	-225	-57	1441	31
-235	-640	-187	613	31
-113	-497	-90	45	31
-69	-239	-17	-411	31
-33	-208	23	-983	31
-42	-12	22	-858	31
37	135	121	-226	31
-29	297	-158	-11	31
-49	70	-200	494	31
14	-295	-14	523	31
-22	-194	204	552	31
-90	-70	328	100	31
-168	-80	123	-95	31
-140	-553	54	-462	31
-87	-771	-71	-541	31
-11	-459	54	310	31
44	-174	216	-207	31
-8	33	-131	223	31
-59	231	-471	421	31
-111	557	-545	386	31
-92	370	-509	596	31
-16	-250	-323	298	31
95	-543	-70	-98	31
123	211	191	-663	31
-70	1276	159	-14	31
-285	1324	27	428	31
-303	350	-108	738	31
-153	-1135	-401	810	31
90	-1850	-142	80	31
309	-1438	401	-666	31
255	-686	593	-713	31
-52	618	378	249	31
-52	618	378	249	31
-57	622	372	247	31
-62	627	365	244	31
-67	632	358	241	31
-72	637	351	238	31
-77	642	344	235	31
-82	647	337	232	31
-87	652	330	229	31
-92	656	323	226	31
-97	661	316	223	31
-102	666	309	220	31
-107	671	302	217	31
-113	676	295	214	31
-118	681	288	211	31
-123	686	281	208	31
-128	691	274	205	31
-133	695	267	202	31
-138	700	260	199	31
-143	705	253	196	31
-148	710	246	193	31
-153	715	239	190	31
-158	720	233	187	31
-163	725	226	184	31
-168	729	219	181	31
-174	734	212	178	31
-179	739	205	175	31
-184	744	198	172	31
-189	749	191	169	31
-194	754	184	166	31
-199	759	177	163	31
-204	764	170	160	31
-209	768	163	157	31
-214	773	156	154	31
-219	778	149	151	31
-224	783	142	148	31
-229	788	135	145	31
-235	793	128	142	31
-240	798	121	139	31
-245	802	114	136	31
-250	807	107	133	31
-255	812	100	130	31
-260	817	94	127	31
-265	822	87	124	31
-270	827	80	121	31
-275	832	73	118	31
-280	837	66	115	31
-285	841	59	112	31
-290	846	52	109	31
-296	851	45	106	31
-301	856	38	103	31
-306	861	31	100	31
-311	866	24	97	31
-316	871	17	94	31
-321	875	10	91	31
-326	880	3	88	31
-331	885	-4	85	31
-336	890	-11	82	31
-341	895	-18	79	31
-346	900	-25	76	31
-351	905	-32	73	31
-357	910	-39	70	31
-513	1095	-68	460	31
-340	590	-145	305	31
-24	-286	-192	376	31
326	-1156	-330	114	31
659	-1365	-236	-31	31
621	-397	-41	-274	31
100	1216	259	-325	31
-136	1921	180	427	31
-285	1169	-265	43	31
-571	-709	-454	-128	31
-17	-2084	-269	511	31
616	-1689	189	411	31
655	-1058	673	-1339	31
583	-825	818	-1582	31
372	-125	513	-727	31
236	318	295	-402	31
-36	303	-89	205	31
-152	106	-512	-105	31
-11	-136	-459	506	31
7	3	-316	767	31
-24	186	-175	1025	31
-170	208	-85	832	31
-149	407	127	-334	31
-112	271	274	-757	31
-113	-77	127	-945	31
-98	49	112	175	31
-126	102	90	446	31
-145	153	-108	4	31
-153	267	-267	234	31
-93	274	-240	416	31
-103	313	15	95	31
-98	158	336	-904	31
-98	82	430	-656	31
-93	210	241	49	31
-57	388	-259	295	31
-75	381	-575	248	31
-73	267	-286	193	31
-51	519	16	39	31
-62	872	32	21	31
-62	872	32	21	31
-64	862	34	20	31
-66	851	37	18	31
-69	840	39	16	31
-71	829	42	15	31
-74	818	44	13	31
-76	808	47	11	31
-78	797	49	9	31
-81	786	52	8	31
-83	775	54	6	31
-86	764	57	4	31
-88	754	59	3	31
-91	743	62	1	31
-93	732	64	-1	31
-95	721	67	-3	31
-98	710	70	-4	31
-100	700	72	-6	31
-103	689	75	-8	31
-105	678	77	-9	31
-107	667	80	-11	31
-110	656	82	-13	31
-112	646	85	-15	31
-115	635	87	-16	31
-117	624	90	-18	31
-120	613	92	-20	31
-122	602	95	-21	31
-124	592	97	-23	31
-127	581	100	-25	31
-129	570	102	-27	31
-132	559	105	-28	31
-134	548	108	-30	31
-136	538	110	-32	31
-139	527	113	-33	31
-141	516	115	-35	31
-144	505	118	-37	31
-146	494	120	-39	31
-149	484	123	-40	31
-151	473	125	-42	31
-153	462	128	-44	31
-156	451	130	-45	31
-158	440	133	-47	31
-161	430	135	-49	31
-163	419	138	-51	31
-165	408	140	-52	31
-168	397	143	-54	31
-170	386	146	-56	31
-173	376	148	-57	31
-175	365	151	-59	31
-178	354	153	-61	31
-180	343	156	-63	31
-182	332	158	-64	31
-185	322	161	-66	31
-187	311	163	-68	31
-190	300	166	-69	31
-192	289	168	-71	31
-194	278	171	-73	31
-197	268	173	-75	31
-199	257	176	-76	31
-202	246	178	-78	31
-204	235	181	-80	31
-207	224	184	-82	31
-108	336	204	688	31
-81	109	424	-22	31
-97	-205	633	595	31
65	-337	476	698	31
122	-310	-118	507	31
173	-325	-430	212	31
140	-421	-375	72	31
20	-353	-279	504	31
-4	-365	-399	487	31
-80	-134	-439	200	31
-79	-34	-78	-646	31
-89	-16	48	-1316	31
-89	89	175	-660	31
-8	74	266	489	31
-35	370	-130	610	31
