File Name: not saved
Channel 1: 'EMG 1', 18001 values, raw ADC, no filters.
Channel 2: 'EMG 2', 18001 values, raw ADC, no filters.
Channel 3: 'EMG 3', 18001 values, raw ADC, no filters.
Channel 4: 'EMG 4', 18001 values, raw ADC, no filters.
Digitals combined (event=16, d=8, c=4, b=2, a=1): 18001 values, .

-7	4	11	79	31
45	31	58	12	31
-14	-41	43	-161	31
6	-67	17	-87	31
-26	-24	-14	31	31
-25	3	17	-138	31
-15	-16	117	-279	31
-16	2	140	-290	31
-5	1	107	-67	31
-4	0	50	-5	31
1	6	-20	-206	31
-1	-4	-83	-131	31
-2	2	-105	59	31
-9	-4	-76	160	31
-9	1	11	125	31
-11	2	262	104	31
-12	1	453	153	31
-1	4	257	216	31
1	1	-33	244	31
4	0	-286	224	31
14	2	-404	141	31
39	14	-332	-33	31
28	11	-352	-105	31
-7	2	-181	-157	31
-12	-1	6	-254	31
-24	-3	16	-163	31
-17	1	44	29	31
11	-2	51	65	31
26	1	129	123	31
2	4	99	160	31
-8	6	12	72	31
-8	7	-49	86	31
-26	6	-80	68	31
-9	7	-14	-79	31
-1	5	39	-254	31
6	4	171	-138	31
14	6	252	71	31
19	9	133	190	31
11	4	-38	246	31
0	1	-151	191	31
17	-1	-185	186	31
12	-11	-216	-27	31
-8	-14	-151	12	31
-8	-4	18	250	31
-6	10	78	271	31
2	26	139	74	31
9	25	232	-264	31
-1	6	201	-368	31
6	-7	89	-303	31
31	-12	55	-311	31
32	-5	49	-422	31
-29	1	-62	-224	31
-132	4	-143	-211	31
-148	14	-143	-90	31
-66	5	-125	155	31
5	-1	-86	-7	31
102	-5	27	-77	31
123	-12	103	-232	31
51	-17	161	-94	31
36	-21	181	156	31
21	-2	24	453	31
31	6	-82	588	31
19	2	-158	577	31
-3	1	-187	716	31
8	-7	-159	703	31
-2	5	-72	969	31
-2	9	87	706	31
-27	11	24	-500	31
-34	1	-89	-1115	31
-26	-8	-251	-668	31
-22	-4	-195	-1122	31
-26	-13	184	-1538	31
-37	-13	207	-1050	31
-25	-9	231	-1137	31
-19	-11	365	-759	31
-9	-6	438	-262	31
-14	-6	494	318	31
-32	-4	235	747	31
-39	-9	-89	378	31
-9	-19	-371	428	31
52	-14	-441	478	31
50	-6	-189	463	31
19	-37	-103	590	31
18	-64	-143	906	31
-72	37	-1	861	31
-95	133	46	473	31
20	71	-56	639	31
15	60	-42	887	31
-98	53	-3	759	31
-277	-47	-7	80	31
-438	-20	166	-197	31
-592	116	399	-315	31
-605	80	322	-1448	31
-145	-133	341	-2113	31
405	-138	324	-1380	31
823	-24	82	-612	31
989	19	-67	-146	31
562	105	-466	259	31
114	85	-820	362	31
-101	1	-561	240	31
-146	-62	-20	177	31
280	-70	-49	75	31
516	59	-300	-92	31
180	47	-417	27	31
-6	-25	-573	151	31
-130	-2	-465	439	31
-153	-6	-259	808	31
34	33	-126	1036	31
-47	22	-57	1257	31
-42	29	280	1057	31
95	63	806	676	31
28	36	885	209	31
-149	41	615	-343	31
-285	9	288	-1161	31
-393	9	-135	-1858	31
-290	4	-361	-1507	31
-66	-42	-25	-1180	31
19	-21	329	-501	31
-1	42	191	567	31
-404	162	-100	733	31
-306	177	-244	691	31
150	8	-433	437	31
156	-90	-102	432	31
376	-144	745	423	31
68	-186	1121	-453	31
-152	-60	1134	-1017	31
226	-38	621	-866	31
112	9	-469	-411	31
-201	202	-1428	-208	31
-542	223	-1514	-185	31
-726	260	-758	83	31
-415	398	-425	269	31
378	378	-220	312	31
424	67	165	295	31
45	-512	161	245	31
163	-690	331	176	31
251	-452	464	284	31
390	-304	443	431	31
535	-45	259	247	31
521	6	-44	29	31
68	7	-183	138	31
-70	153	-179	181	31
35	135	251	111	31
-120	87	653	389	31
-158	-44	603	233	31
-387	-97	297	-347	31
-509	-25	-367	-551	31
-278	-67	-1119	-250	31
-47	-214	-947	-2	31
271	-205	-406	57	31
399	-26	-214	211	31
83	30	427	216	31
-18	118	997	453	31
-44	290	800	514	31
-106	346	134	210	31
-164	311	-448	-31	31
-337	44	-740	-124	31
-215	-265	-632	-266	31
51	-446	99	-487	31
64	-394	300	-256	31
-345	-120	65	-214	31
-100	-1	270	-217	31
347	50	586	2	31
223	-30	831	112	31
400	-1	654	213	31
129	70	191	53	31
-122	26	-424	-171	31
-49	110	-916	-203	31
7	7	-904	-15	31
257	33	-645	171	31
239	153	-232	316	31
97	67	112	19	31
-173	16	123	-365	31
-312	-41	13	-304	31
-343	-106	45	-8	31
-96	-92	170	216	31
29	-6	289	267	31
104	6	309	351	31
418	18	309	191	31
144	5	133	73	31
41	0	-6	-6	31
5	42	20	-140	31
-157	-8	-145	-284	31
-137	-36	-219	-438	31
-243	-17	-7	-610	31
-75	119	525	-506	31
-27	171	741	100	31
-62	70	106	384	31
143	21	-470	519	31
113	-74	-826	478	31
-105	-79	-984	12	31
-175	-30	-497	-386	31
-105	-90	58	-640	31
-102	-64	236	-633	31
-54	-1	307	-158	31
72	5	245	197	31
67	21	50	120	31
89	-27	46	241	31
70	-64	42	57	31
-51	-36	6	-13	31
20	-19	-57	97	31
-22	19	-68	-148	31
-51	59	166	-239	31
-26	49	328	-130	31
-157	39	274	161	31
-130	79	160	122	31
-90	123	181	281	31
-26	68	84	652	31
17	-7	-108	359	31
-121	-98	-150	96	31
-198	-236	-247	221	31
-134	-124	-269	97	31
-41	32	-106	-70	31
152	-27	47	-34	31
343	45	24	-64	31
219	133	-39	-221	31
128	61	-54	-494	31
116	-34	-21	-203	31
-103	-194	-61	60	31
-109	-292	-164	-2	31
-73	-143	74	249	31
212	65	244	302	31
391	124	127	273	31
231	59	-117	154	31
170	-45	-280	-115	31
-83	-46	39	-271	31
1	-16	233	-295	31
118	-34	79	-209	31
27	59	66	53	31
22	123	-36	264	31
-2	86	-34	90	31
-84	75	199	-67	31
-137	45	203	-162	31
-94	43	213	-238	31
-81	9	155	-231	31
-34	8	-203	-175	31
-99	95	-401	-112	31
-153	42	-428	21	31
-153	-19	-302	175	31
-42	-42	-14	243	31
144	-47	79	180	31
9	40	117	-11	31
-95	12	93	-118	31
-114	3	5	-161	31
-211	75	-17	-64	31
-213	84	-99	-17	31
-161	90	-49	11	31
92	-3	64	120	31
117	-58	111	92	31
60	-32	59	27	31
240	-12	-3	-54	31
100	27	85	-110	31
14	-45	56	-156	31
12	-75	10	20	31
-69	-31	24	274	31
97	3	-20	304	31
106	24	41	261	31
-34	1	138	100	31
42	34	127	-14	31
-58	75	97	-198	31
-274	105	9	-182	31
-398	47	-108	64	31
-426	-141	-119	17	31
-323	-273	-163	-87	31
143	-130	-141	-101	31
924	224	49	12	31
638	276	163	72	31
11	102	168	-34	31
105	29	9	-78	31
-14	-102	-176	3	31
-35	-131	-168	163	31
17	-12	-105	102	31
-67	34	33	-39	31
-178	44	305	-84	31
-280	21	481	-59	31
-51	-32	315	23	31
154	-79	98	-44	31
264	-66	-141	-71	31
107	-3	-453	101	31
3	-36	-343	-19	31
57	-34	-244	-168	31
-136	30	-449	31	31
-147	35	-332	17	31
-79	17	-173	-48	31
-32	-43	-121	16	31
69	10	145	-17	31
65	29	322	-32	31
-2	-47	279	-52	31
-26	-29	258	-98	31
-102	-1	252	4	31
-158	20	138	135	31
-139	9	32	268	31
-31	80	-51	468	31
185	131	-75	512	31
113	41	-55	125	31
133	-78	-93	-206	31
214	-171	-122	-218	31
-61	-99	-89	-279	31
-247	42	-60	-276	31
-471	93	16	-365	31
-591	148	130	-190	31
-367	97	125	-6	31
16	-62	138	-44	31
554	-97	123	-11	31
666	-117	-7	-115	31
387	-51	-95	19	31
399	16	-104	46	31
129	-44	-64	-47	31
-79	-80	-41	40	31
39	-75	31	23	31
-301	44	127	82	31
-352	-7	119	128	31
-200	-71	70	50	31
-106	42	69	76	31
161	82	58	44	31
185	65	31	29	31
98	-18	-32	103	31
-29	-34	-214	60	31
-353	-21	-305	49	31
-580	129	-228	19	31
-469	314	-95	-20	31
-146	204	111	-84	31
125	42	181	-148	31
636	-39	224	-95	31
725	-100	406	70	31
203	-168	390	151	31
387	-79	249	-46	31
152	-134	-16	-158	31
-259	-188	-431	-86	31
102	-11	-449	-127	31
90	-97	-147	-56	31
-60	-36	6	119	31
-21	67	88	68	31
-2	14	92	9	31
-85	49	-44	134	31
-122	13	-226	-7	31
-138	31	-416	-167	31
-198	11	-231	73	31
-130	9	-12	242	31
-130	19	-72	246	31
-105	15	34	171	31
94	60	97	221	31
165	34	108	254	31
-7	43	126	117	31
-48	86	95	13	31
-82	81	42	-8	31
-178	-22	-21	-237	31
-282	-130	31	-656	31
-354	-55	12	-516	31
-93	64	-91	-95	31
130	41	-122	-52	31
424	10	-64	23	31
540	-55	14	-18	31
152	-58	137	-133	31
59	27	270	73	31
-11	-31	334	44	31
-141	-7	247	-118	31
-153	-15	75	94	31
-225	-69	-59	89	31
-175	-1	-85	-218	31
16	38	-57	-80	31
187	69	-166	-46	31
79	60	-197	138	31
84	-3	-182	428	31
93	-42	-161	151	31
21	-2	-9	-14	31
45	32	91	39	31
-148	36	130	17	31
-332	22	176	-9	31
-372	-85	180	3	31
-223	-115	142	59	31
-210	-2	27	36	31
-171	196	-177	4	31
151	416	-282	59	31
2	320	-211	87	31
-113	-165	-120	140	31
234	-456	97	94	31
525	-185	270	-132	31
170	83	188	-251	31
-332	-35	115	-176	31
37	-123	-52	-54	31
366	-132	-262	79	31
395	-92	-260	39	31
120	-81	-155	136	31
72	-37	-77	163	31
254	76	-12	-77	31
80	68	50	12	31
161	114	142	77	31
-1	44	292	81	31
-81	28	385	-79	31
17	25	241	-70	31
-76	-41	-50	130	31
51	50	-296	33	31
-127	60	-357	42	31
-362	54	-74	-79	31
-325	-48	-9	-102	31
-213	-103	-104	-241	31
256	-21	45	-314	31
289	-43	-31	-75	31
-79	-10	-32	-34	31
32	89	149	48	31
1	171	140	57	31
-62	136	57	97	31
-92	-19	-12	140	31
-208	-118	-55	150	31
-41	-73	-82	75	31
53	22	-39	-133	31
101	-21	56	-174	31
-52	-17	-54	-84	31
-338	33	-210	-36	31
-362	50	-73	-38	31
-115	54	87	-52	31
115	8	127	-49	31
134	-31	109	158	31
187	-117	-12	132	31
84	-85	-82	98	31
-42	-18	-52	222	31
-6	-20	-35	77	31
26	10	-29	39	31
-29	9	-27	37	31
-151	36	117	67	31
-143	-4	279	80	31
16	-59	248	-92	31
391	-37	171	-169	31
363	-29	98	-176	31
-125	24	158	-194	31
-149	112	104	-198	31
-143	97	-136	-136	31
-180	-14	-307	-41	31
113	15	-503	32	31
287	141	-352	138	31
160	97	16	126	31
0	-24	193	-49	31
26	-90	258	-92	31
-19	-138	100	-36	31
-16	-6	-13	127	31
-81	75	-123	297	31
-161	24	-245	285	31
12	31	-21	276	31
59	-65	148	44	31
86	-75	102	-58	31
110	-67	159	-42	31
86	-130	192	-238	31
-91	-133	64	-123	31
-127	-103	-55	-64	31
-34	-19	-115	36	31
-178	12	-173	183	31
-153	-14	-215	241	31
-199	-28	-251	352	31
-118	31	-192	119	31
66	167	-84	-80	31
-8	265	26	-183	31
-7	109	115	-587	31
32	-179	49	-846	31
190	-136	-23	-334	31
506	16	25	101	31
228	-6	103	120	31
-82	14	32	-12	31
34	16	26	-107	31
-186	9	106	-24	31
-186	9	106	-24	31
-185	6	106	-22	31
-183	3	105	-20	31
-181	0	104	-18	31
-179	-3	103	-16	31
-177	-6	102	-14	31
-175	-9	101	-12	31
-173	-12	100	-10	31
-171	-15	99	-8	31
-170	-18	98	-5	31
-168	-21	97	-3	31
-166	-24	96	-1	31
-164	-27	96	1	31
-162	-30	95	3	31
-160	-33	94	5	31
-158	-36	93	7	31
-156	-39	92	9	31
-154	-42	91	11	31
-153	-46	90	14	31
-151	-49	89	16	31
-149	-52	88	18	31
-147	-55	87	20	31
-145	-58	86	22	31
-143	-61	85	24	31
-141	-64	85	26	31
-139	-67	84	28	31
-137	-70	83	30	31
-136	-73	82	33	31
-134	-76	81	35	31
-132	-79	80	37	31
-130	-82	79	39	31
-128	-85	78	41	31
-126	-88	77	43	31
-124	-91	76	45	31
-122	-94	75	47	31
-120	-98	74	50	31
-119	-101	74	52	31
-117	-104	73	54	31
-115	-107	72	56	31
-113	-110	71	58	31
-111	-113	70	60	31
-109	-116	69	62	31
-107	-119	68	64	31
-105	-122	67	66	31
-104	-125	66	69	31
-102	-128	65	71	31
-100	-131	64	73	31
-98	-134	64	75	31
-96	-137	63	77	31
-94	-140	62	79	31
-92	-143	61	81	31
-90	-146	60	83	31
-88	-149	59	85	31
-87	-153	58	88	31
-85	-156	57	90	31
-83	-159	56	92	31
-81	-162	55	94	31
-79	-165	54	96	31
-77	-168	53	98	31
-75	-171	53	100	31
-73	-174	52	102	31
-71	-177	51	104	31
-70	-180	50	107	31
-68	-183	49	109	31
-66	-186	48	111	31
-64	-189	47	113	31
-62	-192	46	115	31
-60	-195	45	117	31
-58	-198	44	119	31
-56	-201	43	121	31
-54	-205	42	124	31
33	-839	-181	234	31
116	-806	-208	29	31
107	-378	-161	-129	31
4	-169	-143	-123	31
2	-55	114	-68	31
112	26	161	-57	31
82	-1	113	-16	31
-7	23	80	50	31
72	43	-71	57	31
72	43	-71	57	31
71	43	-69	57	31
70	44	-67	57	31
69	45	-65	57	31
67	46	-62	57	31
66	47	-60	57	31
65	48	-58	57	31
64	48	-55	57	31
62	49	-53	57	31
61	50	-51	58	31
60	51	-48	58	31
58	52	-46	58	31
57	53	-44	58	31
56	54	-41	58	31
55	54	-39	58	31
53	55	-37	58	31
52	56	-34	58	31
51	57	-32	58	31
49	58	-30	59	31
48	59	-27	59	31
47	60	-25	59	31
46	60	-23	59	31
44	61	-21	59	31
43	62	-18	59	31
42	63	-16	59	31
40	64	-14	59	31
39	65	-11	60	31
38	65	-9	60	31
37	66	-7	60	31
35	67	-4	60	31
34	68	-2	60	31
33	69	0	60	31
31	70	3	60	31
30	71	5	60	31
29	71	7	60	31
28	72	10	61	31
26	73	12	61	31
25	74	14	61	31
24	75	17	61	31
22	76	19	61	31
21	77	21	61	31
20	77	23	61	31
19	78	26	61	31
17	79	28	62	31
16	80	30	62	31
15	81	33	62	31
13	82	35	62	31
12	82	37	62	31
11	83	40	62	31
10	84	42	62	31
8	85	44	62	31
7	86	47	62	31
6	87	49	63	31
4	88	51	63	31
3	88	54	63	31
2	89	56	63	31
1	90	58	63	31
-1	91	61	63	31
-2	92	63	63	31
-3	93	65	63	31
-5	94	68	64	31
-12	107	62	17	31
-28	207	65	34	31
-48	219	25	2	31
-57	223	-2	-10	31
-106	294	39	-57	31
-119	189	38	-119	31
-112	-1	-29	44	31
-87	-203	-49	79	31
-22	-386	19	20	31
36	-201	116	4	31
41	-24	145	-29	31
8	-219	107	-20	31
-26	-162	-91	143	31
-29	-14	-279	184	31
2	22	-243	128	31
21	113	-163	19	31
-10	36	-63	-116	31
-20	-83	-31	-153	31
41	-120	-36	-180	31
63	-47	16	-74	31
11	32	29	-44	31
-49	21	82	2	31
-32	101	136	34	31
-79	341	162	41	31
-194	694	107	117	31
-201	901	26	27	31
-156	611	-34	33	31
-41	-404	-111	19	31
124	-1153	-44	6	31
124	-1153	-44	6	31
122	-1135	-45	6	31
119	-1117	-46	5	31
117	-1099	-47	5	31
114	-1080	-48	4	31
111	-1062	-49	4	31
109	-1044	-50	3	31
106	-1025	-52	3	31
104	-1007	-53	2	31
101	-989	-54	2	31
98	-970	-55	1	31
96	-952	-56	1	31
93	-934	-57	0	31
91	-915	-58	0	31
88	-897	-60	-1	31
85	-879	-61	-1	31
83	-860	-62	-2	31
80	-842	-63	-2	31
77	-824	-64	-3	31
75	-806	-65	-3	31
72	-787	-66	-4	31
70	-769	-68	-4	31
67	-751	-69	-5	31
64	-732	-70	-5	31
62	-714	-71	-6	31
59	-696	-72	-6	31
57	-677	-73	-7	31
54	-659	-74	-7	31
51	-641	-76	-8	31
49	-622	-77	-8	31
46	-604	-78	-9	31
43	-586	-79	-9	31
41	-567	-80	-10	31
38	-549	-81	-10	31
36	-531	-82	-11	31
33	-512	-84	-11	31
30	-494	-85	-12	31
28	-476	-86	-12	31
25	-458	-87	-13	31
23	-439	-88	-13	31
20	-421	-89	-14	31
17	-403	-90	-14	31
15	-384	-92	-15	31
12	-366	-93	-15	31
9	-348	-94	-16	31
7	-329	-95	-16	31
4	-311	-96	-17	31
2	-293	-97	-17	31
-1	-274	-98	-18	31
-4	-256	-100	-18	31
-6	-238	-101	-19	31
-9	-219	-102	-19	31
-11	-201	-103	-20	31
-14	-183	-104	-20	31
-17	-165	-105	-21	31
-19	-146	-106	-21	31
-22	-128	-108	-22	31
-25	-110	-109	-22	31
-27	-91	-110	-23	31
-30	-73	-111	-23	31
-32	-55	-112	-24	31
-35	-36	-113	-24	31
-38	-18	-114	-25	31
-40	0	-116	-25	31
-43	19	-117	-26	31
-45	37	-118	-26	31
-48	55	-119	-27	31
-51	74	-120	-27	31
-53	92	-121	-28	31
-56	110	-122	-28	31
-59	129	-124	-29	31
-50	85	-215	140	31
-57	146	-213	257	31
-66	153	-188	122	31
-81	190	-80	26	31
-77	186	65	-4	31
-43	77	100	-161	31
26	-19	32	-85	31
58	-11	7	-42	31
-14	161	-16	-57	31
-65	226	4	-187	31
-65	225	55	-310	31
-21	171	9	-156	31
46	1	-45	6	31
47	-140	-92	213	31
46	-280	-42	128	31
50	-262	74	-29	31
20	-75	74	57	31
18	-24	132	84	31
-5	-4	123	108	31
-18	31	55	77	31
-24	23	14	97	31
-46	44	-27	-12	31
-36	41	60	-145	31
-30	81	66	-196	31
-36	167	-9	-138	31
-39	242	-115	17	31
-5	249	-134	-2	31
19	40	32	41	31
-10	-318	101	17	31
-6	-351	97	-7	31
44	-16	92	-13	31
55	59	6	-30	31
-2	13	-100	47	31
-3	23	-201	88	31
-8	-47	-165	89	31
-31	31	-5	4	31
-7	22	91	-10	31
-1	-124	-1	70	31
44	-191	-140	90	31
55	-104	-135	16	31
29	10	-110	-37	31
9	-5	18	-73	31
-11	32	84	-100	31
-28	45	67	-49	31
-43	128	111	78	31
-44	270	89	113	31
-50	258	84	-37	31
-22	129	20	-102	31
16	-243	-45	-129	31
72	-439	-30	50	31
110	-140	40	187	31
72	-23	101	-20	31
25	-37	75	-15	31
-6	43	12	101	31
-22	-1	-73	124	31
-30	62	-41	209	31
-41	108	44	174	31
-65	136	69	-226	31
-105	259	44	-228	31
-117	198	-110	125	31
-82	23	-198	-5	31
-26	-115	-117	-198	31
55	-113	-43	-289	31
82	123	-23	-108	31
-7	110	-19	10	31
-67	-184	14	-29	31
-17	-320	16	36	31
114	-336	-9	-13	31
214	-181	-23	19	31
138	-75	-26	18	31
74	-49	24	3	31
80	-6	105	24	31
35	-1	140	115	31
4	44	123	79	31
-22	42	102	43	31
-12	78	27	176	31
-31	180	4	24	31
-57	290	27	7	31
-82	366	-28	57	31
-128	298	-70	-58	31
-104	11	-120	-55	31
-44	-318	-93	-115	31
39	-494	20	-21	31
86	-431	69	4	31
47	-78	98	-92	31
-17	47	59	-65	31
-30	51	-35	-51	31
-16	127	-80	11	31
-7	52	-21	27	31
-1	69	62	65	31
-22	10	14	40	31
-24	-81	-75	9	31
-21	-40	-151	36	31
-19	34	-144	1	31
-7	58	-27	27	31
1	42	-16	89	31
14	72	5	78	31
12	48	40	23	31
3	49	7	17	31
-8	42	-2	0	31
-36	47	4	-35	31
-77	125	31	-90	31
-90	244	67	-56	31
-71	206	94	-90	31
-24	-169	82	-39	31
18	-312	45	233	31
29	-111	-64	142	31
71	6	-82	-62	31
96	138	27	-104	31
-22	262	13	-85	31
-107	241	6	2	31
-55	-44	4	-26	31
-89	-400	-42	-40	31
-20	-325	24	-10	31
226	-149	85	-20	31
224	-75	100	7	31
37	9	105	47	31
84	2	6	-7	31
73	80	-107	-24	31
-34	126	-168	42	31
-38	190	-127	-87	31
-103	218	-34	-160	31
-108	7	-49	80	31
-98	-82	-57	156	31
-65	17	-44	3	31
36	-45	-27	-37	31
117	-249	32	-29	31
81	-222	79	7	31
27	-11	95	48	31
4	117	27	-34	31
-79	209	12	-50	31
-69	183	21	-6	31
-51	79	-12	-16	31
-9	-135	42	-27	31
53	-485	100	-57	31
58	-284	97	-36	31
50	34	37	19	31
14	-60	-59	122	31
7	25	-175	213	31
-1	116	-227	148	31
-7	175	-111	118	31
-59	200	20	65	31
-98	143	90	-75	31
-120	199	103	-94	31
-133	165	24	-239	31
-79	136	-47	-288	31
-44	27	-71	-84	31
42	-182	-90	-6	31
155	-538	-32	139	31
199	-557	51	197	31
158	-50	80	-66	31
111	-57	123	-36	31
76	-76	59	84	31
27	21	-17	-43	31
11	2	-58	17	31
-9	92	-50	-17	31
-9	47	52	-24	31
-19	95	95	62	31
-45	95	82	63	31
-52	108	33	81	31
-64	150	9	55	31
-68	102	-27	89	31
-55	22	-53	-3	31
-26	-70	-37	-100	31
-1	-1	-13	-59	31
5	30	41	-38	31
-8	29	51	-78	31
-28	49	55	-58	31
-33	92	50	-6	31
-52	178	21	-14	31
-110	252	-26	42	31
-180	436	-62	104	31
-215	456	-106	146	31
-130	221	-92	87	31
29	-129	6	-62	31
178	-650	-12	-140	31
260	-768	-44	-90	31
234	-406	-118	-2	31
151	-261	-150	26	31
72	-102	-21	36	31
29	61	41	95	31
-38	195	121	162	31
-102	472	229	65	31
-137	500	202	-187	31
-112	309	81	-226	31
-8	-310	-29	-41	31
70	-729	-145	-44	31
100	-291	-241	8	31
46	83	-149	52	31
-46	171	55	-54	31
-82	181	148	-34	31
-52	-70	199	5	31
-16	-295	162	-28	31
-37	-37	-7	34	31
-65	287	-89	103	31
-107	368	-119	-25	31
-91	186	-143	-65	31
26	-296	-55	16	31
156	-295	18	166	31
268	-236	-118	194	31
188	-226	-170	34	31
30	34	-87	36	31
-68	79	-19	-130	31
-203	382	68	-211	31
-244	515	92	-104	31
-222	529	103	-126	31
-108	451	55	-92	31
96	-122	-1	73	31
238	-581	-20	221	31
321	-875	-36	92	31
266	-522	39	-60	31
133	-123	69	-32	31
14	-102	11	60	31
-44	87	-2	95	31
-64	49	14	26	31
-85	114	30	50	31
-57	356	38	79	31
-99	730	65	-16	31
-219	919	80	-106	31
-291	691	54	-178	31
-297	151	-14	-156	31
-218	-446	-82	10	31
-86	151	-62	141	31
5	278	24	32	31
222	-1081	46	2	31
483	-1425	-17	42	31
469	-628	31	0	31
238	-67	115	41	31
-9	130	150	12	31
-50	145	170	-16	31
-6	-189	41	12	31
-23	-132	-247	57	31
-216	949	-318	95	31
-654	1947	-75	95	31
-880	2036	64	60	31
-684	1223	52	-20	31
-105	-950	-70	-122	31
713	-2294	-178	-195	31
1116	-1608	-148	-154	31
835	-355	-153	-70	31
489	-99	-44	-52	31
209	358	51	-42	31
-34	272	127	-22	31
-84	464	191	-6	31
-299	1024	50	65	31
-461	1517	3	130	31
-518	1846	-35	86	31
-732	1473	-54	44	31
-686	216	16	26	31
-346	-967	13	-46	31
-9	-1269	1	67	31
363	-2092	-26	242	31
802	-1972	-104	153	31
852	-633	-70	-42	31
459	-637	1	-220	31
367	-1637	72	-290	31
335	-1205	154	-75	31
184	246	155	17	31
-84	770	166	-42	31
-428	1440	92	-2	31
-435	1141	-36	-9	31
-487	-33	-150	46	31
-428	-428	-180	122	31
-237	-118	-165	175	31
-244	877	-125	19	31
-213	442	12	-57	31
174	31	95	56	31
519	-346	104	4	31
474	-1581	66	-141	31
419	-310	50	-206	31
144	693	17	-56	31
12	-382	19	-69	31
97	-1035	92	-79	31
120	-551	84	-19	31
40	728	107	31	31
-295	700	157	105	31
-262	151	155	72	31
-153	-322	-13	150	31
-8	-879	-223	159	31
224	-785	-262	105	31
93	121	-194	-3	31
-248	1489	-19	-52	31
-386	1626	151	16	31
-319	829	62	46	31
-306	-1033	-132	24	31
47	-1191	-126	17	31
213	502	-14	105	31
44	209	85	14	31
161	-449	40	-74	31
161	-449	40	-74	31
160	-454	37	-81	31
159	-459	33	-89	31
158	-464	30	-97	31
157	-470	26	-104	31
156	-475	23	-112	31
155	-480	19	-120	31
154	-485	16	-127	31
153	-491	12	-135	31
152	-496	9	-143	31
151	-501	5	-150	31
150	-506	2	-158	31
149	-512	-2	-166	31
148	-517	-5	-173	31
147	-522	-9	-181	31
146	-527	-13	-189	31
145	-533	-16	-196	31
144	-538	-20	-204	31
143	-543	-23	-212	31
142	-548	-27	-219	31
140	-554	-30	-227	31
139	-559	-34	-235	31
138	-564	-37	-242	31
137	-569	-41	-250	31
136	-575	-44	-258	31
135	-580	-48	-265	31
134	-585	-51	-273	31
133	-590	-55	-281	31
132	-596	-58	-288	31
131	-601	-62	-296	31
130	-606	-66	-304	31
129	-611	-69	-311	31
128	-617	-73	-319	31
127	-622	-76	-327	31
126	-627	-80	-334	31
125	-632	-83	-342	31
124	-638	-87	-350	31
123	-643	-90	-357	31
122	-648	-94	-365	31
121	-653	-97	-373	31
119	-659	-101	-380	31
118	-664	-104	-388	31
117	-669	-108	-396	31
116	-674	-111	-403	31
115	-680	-115	-411	31
114	-685	-119	-419	31
113	-690	-122	-426	31
112	-695	-126	-434	31
111	-701	-129	-442	31
110	-706	-133	-449	31
109	-711	-136	-457	31
108	-716	-140	-465	31
107	-722	-143	-472	31
106	-727	-147	-480	31
105	-732	-150	-488	31
104	-737	-154	-495	31
103	-743	-157	-503	31
102	-748	-161	-511	31
101	-753	-164	-518	31
100	-758	-168	-526	31
98	-764	-172	-534	31
310	-249	-458	-41	31
167	252	-487	403	31
-7	-49	-93	254	31
34	357	84	219	31
-44	705	6	387	31
-188	995	302	166	31
-361	1038	471	-33	31
-504	407	90	-145	31
-348	332	-346	-417	31
11	-258	-695	-347	31
338	-1081	-525	-110	31
474	-916	161	130	31
522	-507	560	272	31
392	-879	410	407	31
148	-1783	52	394	31
-20	-996	-285	272	31
-209	-649	-98	229	31
-250	-797	391	37	31
-131	82	299	-9	31
-9	270	222	-46	31
5	589	-65	-222	31
-11	318	-446	-207	31
34	-65	-168	-157	31
-38	438	-120	-143	31
-96	420	111	-44	31
-24	90	433	60	31
12	360	321	224	31
-27	608	446	122	31
-69	283	711	-124	31
-98	255	252	-31	31
-97	327	-421	-203	31
-212	961	-705	-406	31
-548	1944	-1027	-127	31
-737	1940	-538	-4	31
-610	1344	7	51	31
-267	-717	-78	200	31
324	-2397	-62	247	31
898	-2157	111	113	31
999	-1605	55	-65	31
588	-1399	-59	-79	31
289	32	237	-122	31
73	64	661	-198	31
-200	336	1083	-135	31
-128	440	878	31	31
-22	14	-57	124	31
127	479	-958	254	31
209	292	-803	437	31
186	285	70	319	31
213	245	466	7	31
97	151	182	-161	31
34	236	-416	-256	31
-157	322	-877	-3	31
-376	770	-932	-10	31
-392	869	-384	-543	31
-278	470	225	-342	31
-41	-507	489	125	31
167	-1033	187	251	31
214	-341	149	132	31
20	164	671	-203	31
-85	225	699	-173	31
-257	311	149	-75	31
-486	171	-412	-62	31
-537	14	-914	282	31
-589	83	-808	198	31
-497	808	-122	-225	31
-439	1512	131	-255	31
-252	1334	307	-69	31
143	-165	302	-66	31
684	-2293	350	-54	31
1078	-2168	390	146	31
964	-1256	433	200	31
538	-1131	818	103	31
166	9	198	-128	31
50	-6	-846	18	31
-44	138	-1025	249	31
58	510	-510	313	31
100	694	137	606	31
-58	814	194	593	31
-179	487	264	199	31
-179	487	264	199	31
-180	481	259	199	31
-182	474	253	198	31
-183	467	247	198	31
-185	460	241	197	31
-186	453	236	197	31
-188	446	230	196	31
-190	439	224	196	31
-191	432	218	195	31
-193	425	213	195	31
-194	418	207	194	31
-196	411	201	193	31
-198	404	195	193	31
-199	397	190	192	31
-201	390	184	192	31
-202	383	178	191	31
-204	377	172	191	31
-205	370	166	190	31
-207	363	161	190	31
-209	356	155	189	31
-210	349	149	188	31
-212	342	143	188	31
-213	335	138	187	31
-215	328	132	187	31
-217	321	126	186	31
-218	314	120	186	31
-220	307	115	185	31
-221	300	109	185	31
-223	293	103	184	31
-224	286	97	184	31
-226	279	91	183	31
-228	273	86	182	31
-229	266	80	182	31
-231	259	74	181	31
-232	252	68	181	31
-234	245	63	180	31
-236	238	57	180	31
-237	231	51	179	31
-239	224	45	179	31
-240	217	40	178	31
-242	210	34	177	31
-243	203	28	177	31
-245	196	22	176	31
-247	189	17	176	31
-248	182	11	175	31
-250	175	5	175	31
-251	169	-1	174	31
-253	162	-7	174	31
-255	155	-12	173	31
-256	148	-18	173	31
-258	141	-24	172	31
-259	134	-30	171	31
-261	127	-35	171	31
-262	120	-41	170	31
-264	113	-47	170	31
-266	106	-53	169	31
-267	99	-58	169	31
-269	92	-64	168	31
-270	85	-70	168	31
-272	78	-76	167	31
-274	71	-82	166	31
-275	65	-87	166	31
-277	58	-93	165	31
-278	51	-99	165	31
-280	44	-105	164	31
-281	37	-110	164	31
-283	30	-116	163	31
-285	23	-122	163	31
-286	16	-128	162	31
-288	9	-133	162	31
-289	2	-139	161	31
-291	-5	-145	160	31
-293	-12	-151	160	31
-294	-19	-156	159	31
-296	-26	-162	159	31
-297	-33	-168	158	31
-299	-39	-174	158	31
-300	-46	-180	157	31
-302	-53	-185	157	31
-304	-60	-191	156	31
-305	-67	-197	155	31
-307	-74	-203	155	31
-308	-81	-208	154	31
-310	-88	-214	154	31
-312	-95	-220	153	31
-313	-102	-226	153	31
-315	-109	-231	152	31
-316	-116	-237	152	31
-318	-123	-243	151	31
-319	-130	-249	151	31
-321	-137	-255	150	31
-323	-143	-260	149	31
-324	-150	-266	149	31
-326	-157	-272	148	31
-327	-164	-278	148	31
-329	-171	-283	147	31
-331	-178	-289	147	31
-332	-185	-295	146	31
-334	-192	-301	146	31
-335	-199	-306	145	31
-337	-206	-312	144	31
-338	-213	-318	144	31
-340	-220	-324	143	31
-342	-227	-329	143	31
-343	-234	-335	142	31
-345	-241	-341	142	31
-346	-247	-347	141	31
-348	-254	-353	141	31
-350	-261	-358	140	31
-351	-268	-364	140	31
-353	-275	-370	139	31
-354	-282	-376	138	31
-356	-289	-381	138	31
-357	-296	-387	137	31
-359	-303	-393	137	31
-361	-310	-399	136	31
-362	-317	-404	136	31
-364	-324	-410	135	31
-365	-331	-416	135	31
-367	-338	-422	134	31
-369	-345	-428	133	31
-274	-352	-1501	-50	31
-287	-300	-1870	-245	31
-204	214	-1179	-341	31
-113	313	-183	-719	31
41	-85	24	-878	31
195	-222	226	-432	31
126	-45	386	-50	31
-29	370	437	307	31
-187	439	516	310	31
-295	-66	422	229	31
-11	-594	464	93	31
139	-409	552	-327	31
-64	-28	407	-266	31
146	87	91	-37	31
615	315	-175	425	31
590	-70	-388	608	31
312	-67	-365	190	31
49	485	-305	458	31
-560	619	-244	378	31
-678	758	313	59	31
-7	424	719	226	31
40	-325	356	197	31
102	-897	-167	-149	31
622	-594	-633	-416	31
352	5	-638	-324	31
-227	153	-64	-361	31
-108	355	152	-217	31
252	445	268	-97	31
229	542	120	-112	31
229	542	120	-112	31
223	536	124	-112	31
217	530	129	-112	31
211	524	133	-111	31
205	517	138	-111	31
199	511	142	-110	31
192	505	147	-110	31
186	498	151	-109	31
180	492	156	-109	31
174	486	160	-109	31
168	479	165	-108	31
162	473	169	-108	31
155	467	174	-107	31
149	461	178	-107	31
143	454	183	-106	31
137	448	187	-106	31
131	442	192	-106	31
125	435	196	-105	31
118	429	201	-105	31
112	423	205	-104	31
106	416	210	-104	31
100	410	214	-103	31
94	404	219	-103	31
88	398	223	-103	31
81	391	228	-102	31
75	385	232	-102	31
69	379	237	-101	31
63	372	241	-101	31
57	366	246	-100	31
51	360	250	-100	31
44	353	255	-100	31
38	347	259	-99	31
32	341	264	-99	31
26	335	268	-98	31
20	328	273	-98	31
13	322	278	-97	31
7	316	282	-97	31
1	309	287	-97	31
-5	303	291	-96	31
-11	297	296	-96	31
-17	290	300	-95	31
-24	284	305	-95	31
-30	278	309	-94	31
-36	272	314	-94	31
-42	265	318	-94	31
-48	259	323	-93	31
-54	253	327	-93	31
-61	246	332	-92	31
-67	240	336	-92	31
-73	234	341	-91	31
-79	227	345	-91	31
-85	221	350	-91	31
-91	215	354	-90	31
-98	209	359	-90	31
-104	202	363	-89	31
-110	196	368	-89	31
-116	190	372	-88	31
-122	183	377	-88	31
-128	177	381	-88	31
-135	171	386	-87	31
-141	164	390	-87	31
-147	158	395	-86	31
-153	152	399	-86	31
-159	146	404	-85	31
-165	139	408	-85	31
-172	133	413	-85	31
-178	127	417	-84	31
-184	120	422	-84	31
-190	114	426	-83	31
-196	108	431	-83	31
-203	101	436	-82	31
-84	82	577	-48	31
53	-187	184	-304	31
-166	-44	-121	-189	31
-394	640	-419	-274	31
-468	661	-518	-113	31
-558	130	36	137	31
-366	-322	224	334	31
-145	-470	162	345	31
58	-209	85	34	31
345	-45	-266	210	31
481	-521	-201	246	31
511	-897	-199	116	31
746	-523	-106	54	31
1020	-161	53	-68	31
668	173	-113	-265	31
195	336	-138	-292	31
110	286	-104	-18	31
40	355	86	81	31
-127	163	135	128	31
-219	58	179	133	31
-208	-21	298	-8	31
-196	69	242	-67	31
-101	222	201	-123	31
-272	18	126	1	31
-336	-59	12	118	31
-190	-193	-52	11	31
-212	-240	-107	32	31
-128	-169	-176	2	31
-75	1	6	42	31
-7	302	177	136	31
-39	317	140	-125	31
-86	322	-36	-326	31
-158	122	-249	-173	31
-222	-213	-325	11	31
-120	-196	-33	-83	31
-94	-153	370	-103	31
-122	-265	190	54	31
-190	-220	2	185	31
-74	-119	-135	259	31
97	-112	-224	195	31
180	28	-26	72	31
175	107	-1	-307	31
287	94	-26	-339	31
414	74	33	-29	31
201	63	15	-4	31
127	112	-88	76	31
67	107	-62	206	31
-7	133	78	403	31
16	169	176	247	31
-45	201	164	-112	31
-85	239	47	168	31
-102	181	21	257	31
-72	70	11	-279	31
-87	72	204	-477	31
-118	84	391	-436	31
-198	-113	-60	-448	31
-226	-162	-316	-141	31
-58	-2	-417	256	31
176	109	-515	256	31
270	168	-129	27	31
92	46	-31	-39	31
-61	-71	-28	-180	31
-64	-71	248	-175	31
-46	-173	263	32	31
-29	-336	143	137	31
-36	-402	80	245	31
29	-378	-60	290	31
31	-269	-64	146	31
-74	-34	-37	-45	31
-24	209	-103	16	31
-4	348	-140	89	31
-151	372	-191	201	31
-254	346	-64	84	31
-50	204	62	-49	31
222	-35	59	-26	31
208	-182	87	-191	31
176	-322	48	-89	31
251	-363	62	-125	31
191	-288	150	-121	31
-42	-278	175	59	31
-100	-163	230	-62	31
-73	20	295	-298	31
-84	138	259	-173	31
-48	212	113	145	31
-79	193	-147	156	31
-84	196	-173	336	31
-6	225	-54	73	31
61	180	-305	-57	31
-65	114	-484	326	31
-224	-27	-415	-72	31
-245	-100	-191	-150	31
-57	-27	234	-37	31
105	-40	279	-103	31
161	16	226	60	31
391	236	315	62	31
343	285	166	131	31
64	188	-145	74	31
61	146	-373	54	31
20	34	-428	-39	31
-198	-120	-292	-9	31
-207	-439	-65	23	31
-93	-533	132	-67	31
102	-48	524	108	31
168	147	578	19	31
60	42	221	-57	31
128	-54	49	-79	31
-19	-90	-108	16	31
-101	-69	-179	24	31
-98	-281	-216	-197	31
-194	-222	-256	-347	31
39	-22	-117	-252	31
91	4	-2	-26	31
73	46	18	-162	31
140	-1	22	-107	31
-19	45	-42	42	31
-95	155	-112	89	31
-129	209	-73	143	31
-285	165	-17	115	31
-413	96	29	317	31
-413	96	29	317	31
-413	101	30	317	31
-413	106	31	318	31
-413	111	32	318	31
-414	117	33	319	31
-414	122	34	319	31
-414	127	35	320	31
-414	133	36	320	31
-415	138	38	321	31
-415	143	39	322	31
-415	148	40	322	31
-416	154	41	323	31
-416	159	42	323	31
-416	164	43	324	31
-416	170	44	324	31
-417	175	46	325	31
-417	180	47	325	31
-417	186	48	326	31
-417	191	49	327	31
-418	196	50	327	31
-418	201	51	328	31
-418	207	52	328	31
-419	212	54	329	31
-419	217	55	329	31
-419	223	56	330	31
-419	228	57	330	31
-420	233	58	331	31
-420	238	59	332	31
-420	244	60	332	31
-421	249	62	333	31
-421	254	63	333	31
-421	260	64	334	31
-421	265	65	334	31
-422	270	66	335	31
-422	276	67	336	31
-422	281	68	336	31
-422	286	70	337	31
-423	291	71	337	31
-423	297	72	338	31
-423	302	73	338	31
-424	307	74	339	31
-424	313	75	339	31
-424	318	76	340	31
-424	323	78	341	31
-425	328	79	341	31
-425	334	80	342	31
-425	339	81	342	31
-425	344	82	343	31
-426	350	83	343	31
-426	355	84	344	31
-426	360	86	344	31
-427	366	87	345	31
-427	371	88	346	31
-427	376	89	346	31
-427	381	90	347	31
-428	387	91	347	31
-428	392	92	348	31
-428	397	94	348	31
-429	403	95	349	31
-429	408	96	349	31
-429	413	97	350	31
-429	418	98	351	31
-430	424	99	351	31
-430	429	100	352	31
-430	434	102	352	31
-430	440	103	353	31
-431	445	104	353	31
-431	450	105	354	31
-431	456	106	355	31
-432	461	107	355	31
-432	466	108	356	31
-432	471	110	356	31
-432	477	111	357	31
-433	482	112	357	31
-433	487	113	358	31
-433	493	114	358	31
-434	498	115	359	31
-434	503	116	360	31
-434	508	118	360	31
-434	514	119	361	31
-435	519	120	361	31
-435	524	121	362	31
-435	530	122	362	31
-435	535	123	363	31
-436	540	124	363	31
-436	546	126	364	31
-436	551	127	365	31
-437	556	128	365	31
-437	561	129	366	31
-437	567	130	366	31
-437	572	131	367	31
-438	577	132	367	31
-438	583	133	368	31
-438	588	135	368	31
-438	593	136	369	31
-439	598	137	370	31
-439	604	138	370	31
-439	609	139	371	31
-440	614	140	371	31
-440	620	141	372	31
-440	625	143	372	31
-440	630	144	373	31
-441	636	145	374	31
-441	641	146	374	31
-441	646	147	375	31
-442	651	148	375	31
-442	657	149	376	31
-442	662	151	376	31
-442	667	152	377	31
-443	673	153	377	31
-443	678	154	378	31
-443	683	155	379	31
-443	688	156	379	31
-444	694	157	380	31
-444	699	159	380	31
-444	704	160	381	31
-445	710	161	381	31
-445	715	162	382	31
-445	720	163	382	31
-445	726	164	383	31
-446	731	165	384	31
-446	736	167	384	31
-446	741	168	385	31
-447	747	169	385	31
-447	752	170	386	31
-447	757	171	386	31
-447	763	172	387	31
-448	768	173	387	31
-448	773	175	388	31
-448	778	176	389	31
-448	784	177	389	31
-449	789	178	390	31
-449	794	179	390	31
-449	800	180	391	31
-450	805	181	391	31
-450	810	183	392	31
-450	816	184	393	31
-450	821	185	393	31
-451	826	186	394	31
-451	831	187	394	31
-451	837	188	395	31
-451	842	189	395	31
-452	847	191	396	31
-452	853	192	396	31
-452	858	193	397	31
-453	863	194	398	31
-453	868	195	398	31
-453	874	196	399	31
-453	879	197	399	31
-454	884	199	400	31
-454	890	200	400	31
-454	895	201	401	31
-455	900	202	401	31
-455	906	203	402	31
-455	911	204	403	31
-455	916	205	403	31
-456	921	207	404	31
-456	927	208	404	31
-456	932	209	405	31
-456	937	210	405	31
-457	943	211	406	31
-457	948	212	406	31
-457	953	213	407	31
-458	958	215	408	31
-458	964	216	408	31
-458	969	217	409	31
-458	974	218	409	31
-459	980	219	410	31
-459	985	220	410	31
-459	990	221	411	31
-460	996	223	412	31
-893	444	98	300	31
-746	-212	72	444	31
-135	-640	464	539	31
313	-1024	279	90	31
791	-1542	-529	-837	31
1486	-1119	-1152	-1224	31
1169	-579	-1065	-676	31
464	-330	-314	102	31
565	171	242	185	31
-242	47	588	-85	31
-651	119	663	318	31
-192	300	271	565	31
-405	325	-41	150	31
-410	604	-260	-110	31
-479	808	-243	-129	31
-583	855	-57	185	31
-551	303	-154	690	31
-135	-294	-550	861	31
900	-800	-671	13	31
1424	-879	-280	-1219	31
1012	-327	113	-1314	31
220	-285	378	-229	31
-74	-7	562	572	31
-65	317	760	350	31
-343	113	446	268	31
-161	89	84	-127	31
102	7	-33	-291	31
2	152	-153	-72	31
-279	278	247	-166	31
-693	222	608	12	31
-891	221	323	120	31
-658	356	-230	412	31
-664	960	-534	465	31
-878	1393	-619	448	31
-150	1062	-91	570	31
270	-315	391	540	31
474	-1939	-36	632	31
1575	-1864	-302	463	31
1717	-493	-125	-320	31
360	19	-343	-1141	31
-246	157	-372	-1462	31
-478	476	-114	-1922	31
-890	393	-118	-1250	31
-311	355	399	928	31
-140	282	585	1434	31
469	79	600	747	31
742	-108	200	-24	31
-188	-54	-791	-898	31
61	-309	-328	-465	31
429	-380	160	77	31
342	-132	247	686	31
5	-224	148	1543	31
-95	80	-585	968	31
-340	229	-1031	464	31
-909	239	-636	-459	31
-815	-171	25	-2177	31
-405	-704	58	-1979	31
239	-419	539	-737	31
637	-279	611	364	31
785	-24	236	741	31
274	86	322	617	31
-33	-172	297	62	31
339	91	441	-224	31
503	313	396	65	31
449	474	429	-242	31
-204	590	218	793	31
-173	477	-267	890	31
-11	203	-41	-285	31
-257	-312	430	-174	31
-155	-333	600	-110	31
-307	-114	184	118	31
-304	-42	-803	304	31
-304	80	-1472	49	31
-461	38	-1238	-335	31
-552	-36	-284	-355	31
-462	-108	334	86	31
-50	-82	732	304	31
368	25	1395	235	31
157	29	896	41	31
65	80	64	-67	31
360	153	-266	190	31
-107	139	-552	356	31
11	50	-190	370	31
250	17	-512	185	31
-13	59	-1198	-366	31
120	45	-697	-276	31
-112	-23	65	219	31
-247	67	27	-22	31
-385	321	-181	173	31
-439	289	-189	1024	31
-312	89	-600	1052	31
-195	-102	-439	778	31
208	-525	77	-246	31
50	-616	1578	-1417	31
77	-184	2160	-1216	31
535	302	536	-244	31
-44	678	-916	-254	31
-549	424	-1892	-792	31
-264	-133	-1006	-643	31
-264	-133	-1006	-643	31
-255	-127	-989	-633	31
-245	-120	-971	-622	31
-235	-113	-953	-611	31
-225	-106	-935	-600	31
-215	-99	-917	-589	31
-206	-92	-899	-578	31
-196	-85	-881	-567	31
-186	-78	-863	-556	31
-176	-71	-845	-545	31
-166	-64	-827	-534	31
-156	-57	-809	-523	31
-147	-50	-791	-513	31
-137	-43	-773	-502	31
-127	-36	-755	-491	31
-117	-29	-737	-480	31
-107	-22	-719	-469	31
-97	-15	-701	-458	31
-88	-8	-683	-447	31
-78	-1	-665	-436	31
-68	6	-647	-425	31
-58	13	-629	-414	31
-48	20	-611	-403	31
-38	27	-593	-392	31
-29	34	-576	-382	31
-19	41	-558	-371	31
-9	48	-540	-360	31
1	55	-522	-349	31
11	62	-504	-338	31
21	69	-486	-327	31
30	76	-468	-316	31
40	83	-450	-305	31
50	90	-432	-294	31
60	97	-414	-283	31
70	104	-396	-272	31
80	111	-378	-261	31
89	117	-360	-251	31
99	124	-342	-240	31
109	131	-324	-229	31
119	138	-306	-218	31
129	145	-288	-207	31
138	152	-270	-196	31
148	159	-252	-185	31
158	166	-234	-174	31
168	173	-216	-163	31
178	180	-198	-152	31
188	187	-180	-141	31
197	194	-163	-131	31
207	201	-145	-120	31
217	208	-127	-109	31
227	215	-109	-98	31
237	222	-91	-87	31
247	229	-73	-76	31
256	236	-55	-65	31
266	243	-37	-54	31
276	250	-19	-43	31
286	257	-1	-32	31
296	264	17	-21	31
306	271	35	-10	31
315	278	53	0	31
325	285	71	11	31
335	292	89	22	31
345	299	107	33	31
355	306	125	44	31
365	313	143	55	31
374	320	161	66	31
384	327	179	77	31
394	334	197	88	31
404	341	215	99	31
414	348	233	110	31
424	355	251	121	31
119	1041	266	152	31
123	819	183	102	31
299	252	360	42	31
-11	-524	533	-50	31
-116	-796	537	-283	31
-99	-33	-122	-247	31
-99	189	-1012	246	31
1	75	-915	-55	31
96	144	-308	-6	31
96	144	-308	-6	31
97	136	-294	-8	31
98	128	-280	-10	31
99	119	-266	-13	31
101	111	-252	-15	31
102	102	-238	-18	31
103	94	-224	-20	31
105	86	-210	-23	31
106	77	-196	-25	31
107	69	-182	-28	31
109	60	-168	-30	31
110	52	-154	-33	31
111	44	-140	-35	31
113	35	-126	-37	31
114	27	-112	-40	31
115	18	-98	-42	31
117	10	-84	-45	31
118	1	-70	-47	31
119	-7	-56	-50	31
120	-15	-42	-52	31
122	-24	-28	-55	31
123	-32	-14	-57	31
124	-41	0	-60	31
126	-49	14	-62	31
127	-57	28	-64	31
128	-66	42	-67	31
130	-74	56	-69	31
131	-83	70	-72	31
132	-91	84	-74	31
134	-100	98	-77	31
135	-108	112	-79	31
136	-116	126	-82	31
138	-125	140	-84	31
139	-133	154	-87	31
140	-142	168	-89	31
142	-150	183	-92	31
143	-158	197	-94	31
144	-167	211	-96	31
145	-175	225	-99	31
147	-184	239	-101	31
148	-192	253	-104	31
149	-200	267	-106	31
151	-209	281	-109	31
152	-217	295	-111	31
153	-226	309	-114	31
155	-234	323	-116	31
156	-243	337	-119	31
157	-251	351	-121	31
159	-259	365	-123	31
160	-268	379	-126	31
161	-276	393	-128	31
163	-285	407	-131	31
164	-293	421	-133	31
165	-301	435	-136	31
166	-310	449	-138	31
168	-318	463	-141	31
169	-327	477	-143	31
170	-335	491	-146	31
172	-344	505	-148	31
173	-352	519	-150	31
174	-360	533	-153	31
176	-369	547	-155	31
177	-377	561	-158	31
178	-386	575	-160	31
180	-394	589	-163	31
181	-402	603	-165	31
182	-411	617	-168	31
184	-419	631	-170	31
185	-428	645	-173	31
186	-436	659	-175	31
188	-445	674	-178	31
151	-113	65	-65	31
-244	120	-432	-72	31
-418	226	-681	-91	31
-527	352	-606	81	31
-552	277	-107	-66	31
-253	-9	-10	9	31
417	-285	441	-37	31
1091	-374	616	153	31
1061	-234	312	180	31
156	-196	101	-28	31
-20	-67	-509	-251	31
184	14	-740	-310	31
-50	-70	-168	116	31
129	21	189	185	31
65	11	128	16	31
-89	43	166	86	31
-169	98	37	167	31
-229	214	62	94	31
-9	393	226	53	31
-9	393	226	53	31
-10	382	213	49	31
-11	370	199	44	31
-12	358	186	39	31
-13	346	172	34	31
-15	334	159	29	31
-16	322	145	24	31
-17	310	132	19	31
-18	298	118	14	31
-20	286	105	9	31
-21	274	91	4	31
-22	262	78	-1	31
-23	250	64	-6	31
-25	238	50	-11	31
-26	226	37	-16	31
-27	214	23	-21	31
-28	202	10	-26	31
-30	190	-4	-31	31
-31	178	-17	-36	31
-32	166	-31	-41	31
-33	154	-44	-46	31
-35	142	-58	-51	31
-36	130	-71	-56	31
-37	118	-85	-61	31
-38	106	-99	-66	31
-40	94	-112	-71	31
-41	82	-126	-76	31
-42	70	-139	-81	31
-43	58	-153	-86	31
-45	46	-166	-91	31
-46	34	-180	-96	31
-47	22	-193	-101	31
-48	10	-207	-106	31
-50	-2	-220	-111	31
-51	-14	-234	-116	31
-52	-26	-248	-121	31
-53	-38	-261	-126	31
-54	-50	-275	-131	31
-56	-62	-288	-136	31
-57	-74	-302	-141	31
-58	-86	-315	-146	31
-59	-98	-329	-151	31
-61	-110	-342	-156	31
-62	-122	-356	-161	31
-63	-134	-369	-166	31
-64	-146	-383	-171	31
-66	-158	-396	-176	31
-67	-170	-410	-181	31
-68	-182	-424	-186	31
-69	-194	-437	-191	31
-71	-206	-451	-196	31
-72	-218	-464	-201	31
-73	-230	-478	-206	31
-74	-242	-491	-211	31
-76	-254	-505	-216	31
-77	-266	-518	-221	31
-78	-278	-532	-226	31
-79	-290	-545	-231	31
-81	-302	-559	-236	31
-82	-314	-573	-241	31
-83	-326	-586	-246	31
-84	-338	-600	-251	31
-86	-350	-613	-256	31
-87	-362	-627	-261	31
-88	-374	-640	-266	31
-89	-386	-654	-271	31
-91	-398	-667	-276	31
-92	-410	-681	-281	31
-93	-422	-694	-286	31
-94	-434	-708	-291	31
-96	-446	-722	-296	31
-1	-327	-304	-49	31
164	-212	12	70	31
28	-92	69	23	31
-221	-108	88	36	31
-307	-67	-72	-37	31
-240	-18	-178	-72	31
-175	-2	-119	256	31
-55	42	149	170	31
-130	34	327	47	31
-335	16	227	172	31
-198	-22	183	-69	31
113	-5	332	-62	31
279	6	569	-241	31
231	165	398	-14	31
-68	371	-32	244	31
-199	232	-417	-384	31
-194	-127	-543	-247	31
114	-375	-327	-117	31
492	-202	-320	-73	31
93	-113	-240	-57	31
-60	-121	274	-41	31
-38	64	460	92	31
-274	63	324	170	31
-151	118	173	88	31
-93	146	-256	-551	31
-75	148	-460	-249	31
-93	273	-487	93	31
-191	327	-475	70	31
-194	93	-20	324	31
143	-258	295	208	31
277	-100	274	17	31
515	346	216	-38	31
694	606	44	114	31
6	799	-108	174	31
-38	1215	-103	72	31
-323	1122	29	-78	31
-489	16	138	-144	31
-55	-1484	130	-44	31
31	-2195	125	-51	31
323	-1515	199	-24	31
76	-801	138	103	31
41	-598	-10	160	31
290	-17	85	157	31
99	339	290	150	31
-112	586	466	97	31
-87	358	288	-32	31
-87	-184	-413	-156	31
-141	-510	-736	-160	31
-9	-372	-522	-125	31
9	59	-298	-122	31
15	183	-150	-100	31
-79	529	-194	-66	31
-206	1080	-166	-43	31
-376	1430	110	65	31
-391	1317	689	454	31
-162	932	1101	635	31
73	236	651	98	31
355	-507	-153	-312	31
449	-1074	-734	-262	31
287	-1829	-492	-254	31
169	-1298	189	143	31
138	-307	104	193	31
-206	191	-453	-183	31
-573	775	-577	-97	31
-704	499	-111	-230	31
-352	-305	315	-1	31
285	-1105	301	108	31
613	-1074	120	43	31
773	-393	-48	153	31
335	45	-142	-111	31
-75	208	-80	-89	31
18	-99	-64	39	31
-23	-124	-12	183	31
41	11	175	161	31
-21	126	41	151	31
-80	264	-132	115	31
-18	254	31	-185	31
-37	358	165	-476	31
-35	307	24	-466	31
-101	284	-333	-20	31
-35	364	-424	366	31
-21	454	-118	653	31
-141	472	74	249	31
-185	406	82	-174	31
-208	298	166	-241	31
-251	219	272	-575	31
-178	499	370	-316	31
18	674	304	-72	31
-24	678	165	-40	31
-62	464	-13	173	31
40	-244	-145	85	31
41	-410	86	194	31
83	-604	105	22	31
94	-1149	-86	-289	31
118	-406	-370	221	31
121	365	-345	155	31
-134	838	240	-150	31
-310	1301	250	39	31
-195	818	-58	97	31
-191	45	-290	272	31
-96	-1046	-452	261	31
350	-630	-209	93	31
534	287	66	-123	31
349	-816	85	-221	31
314	-1789	89	-135	31
269	-1832	270	-52	31
49	-646	227	176	31
-86	222	124	-1	31
-236	229	15	-186	31
-178	773	-3	57	31
2	545	54	42	31
-218	-82	-241	-34	31
-128	-728	-328	8	31
233	-906	-54	-4	31
172	-337	343	128	31
-77	139	425	172	31
-399	623	47	71	31
-484	773	-293	-71	31
-511	550	-218	-281	31
-138	-18	92	-294	31
701	-519	146	-163	31
534	-545	94	-101	31
114	-160	248	100	31
326	206	348	422	31
109	404	221	454	31
-28	902	-38	401	31
-109	1412	-383	133	31
-201	1597	-391	-382	31
-132	1062	-481	-527	31
-132	1062	-481	-527	31
-132	1048	-476	-518	31
-132	1033	-470	-508	31
-132	1018	-464	-498	31
-132	1003	-458	-488	31
-132	988	-452	-478	31
-132	973	-446	-468	31
-132	959	-440	-458	31
-132	944	-434	-448	31
-132	929	-428	-439	31
-132	914	-422	-429	31
-132	899	-416	-419	31
-132	884	-411	-409	31
-132	870	-405	-399	31
-132	855	-399	-389	31
-132	840	-393	-379	31
-132	825	-387	-369	31
-132	810	-381	-359	31
-132	795	-375	-350	31
-132	780	-369	-340	31
-132	766	-363	-330	31
-132	751	-357	-320	31
-132	736	-351	-310	31
-132	721	-345	-300	31
-131	706	-340	-290	31
-131	691	-334	-280	31
-131	677	-328	-270	31
-131	662	-322	-261	31
-131	647	-316	-251	31
-131	632	-310	-241	31
-131	617	-304	-231	31
-131	602	-298	-221	31
-131	588	-292	-211	31
-131	573	-286	-201	31
-131	558	-280	-191	31
-131	543	-274	-181	31
-131	528	-269	-172	31
-131	513	-263	-162	31
-131	498	-257	-152	31
-131	484	-251	-142	31
-131	469	-245	-132	31
-131	454	-239	-122	31
-131	439	-233	-112	31
-131	424	-227	-102	31
-131	409	-221	-93	31
-131	395	-215	-83	31
-131	380	-209	-73	31
-130	365	-204	-63	31
-130	350	-198	-53	31
-130	335	-192	-43	31
-130	320	-186	-33	31
-130	306	-180	-23	31
-130	291	-174	-13	31
-130	276	-168	-4	31
-130	261	-162	6	31
-130	246	-156	16	31
-130	231	-150	26	31
-130	216	-144	36	31
-130	202	-138	46	31
-130	187	-133	56	31
-130	172	-127	66	31
-130	157	-121	76	31
-130	142	-115	85	31
-130	127	-109	95	31
-130	113	-103	105	31
-130	98	-97	115	31
-130	83	-91	125	31
-130	68	-85	135	31
-130	53	-79	145	31
-130	38	-73	155	31
-129	23	-67	165	31
-255	565	153	125	31
-355	1038	652	82	31
-433	1084	287	42	31
-469	669	-286	-105	31
-390	307	-651	-50	31
-251	-515	-366	166	31
-300	-563	392	27	31
-59	-448	304	-102	31
271	-708	16	-146	31
638	44	-156	-33	31
784	982	-466	368	31
259	1901	-524	191	31
-140	1830	-196	-117	31
-464	33	284	-171	31
-267	-2066	345	-413	31
458	-2121	271	-489	31
673	-634	186	-330	31
597	560	-41	66	31
229	1268	-156	334	31
-32	811	-198	314	31
-173	93	-186	166	31
-153	-140	148	254	31
71	-488	723	540	31
-83	-292	1460	459	31
-36	-370	1656	148	31
-42	-403	93	-94	31
-166	-243	-1247	-368	31
-123	31	-1771	-774	31
-185	229	-1516	-755	31
-41	484	-36	-408	31
10	659	-9	-112	31
-43	419	-136	32	31
60	300	130	115	31
35	-101	46	83	31
-127	-300	404	185	31
-257	-254	534	251	31
-319	-162	794	38	31
-319	194	421	-59	31
-340	246	-61	11	31
-479	212	-454	102	31
-405	217	-874	166	31
-288	-303	-630	135	31
-329	-1034	-729	-176	31
-67	-1139	-249	-28	31
345	-990	217	128	31
600	-886	41	-90	31
454	-584	194	-145	31
264	-105	149	-72	31
440	739	213	274	31
276	1164	208	181	31
236	670	127	-56	31
141	-192	65	-201	31
-36	-464	138	-187	31
228	188	346	128	31
108	81	152	191	31
75	-317	32	176	31
-29	-108	-155	16	31
-256	122	-187	68	31
-252	-140	10	-17	31
-252	-140	10	-17	31
-248	-133	15	-11	31
-244	-126	21	-5	31
-240	-119	26	1	31
-235	-111	32	7	31
-231	-104	38	14	31
-227	-97	43	20	31
-222	-90	49	26	31
-218	-82	54	32	31
-214	-75	60	39	31
-209	-68	66	45	31
-205	-61	71	51	31
-201	-53	77	57	31
-196	-46	83	64	31
-192	-39	88	70	31
-188	-31	94	76	31
-183	-24	99	82	31
-179	-17	105	88	31
-175	-10	111	95	31
-170	-2	116	101	31
-166	5	122	107	31
-162	12	127	113	31
-158	19	133	120	31
-153	27	139	126	31
-149	34	144	132	31
-145	41	150	138	31
-140	48	156	145	31
-136	56	161	151	31
-132	63	167	157	31
-127	70	172	163	31
-123	78	178	170	31
-119	85	184	176	31
-114	92	189	182	31
-110	99	195	188	31
-106	107	200	194	31
-101	114	206	201	31
-97	121	212	207	31
-93	128	217	213	31
-88	136	223	219	31
-84	143	229	226	31
-80	150	234	232	31
-76	157	240	238	31
-71	165	245	244	31
-67	172	251	251	31
-63	179	257	257	31
-58	187	262	263	31
-54	194	268	269	31
-50	201	273	275	31
-45	208	279	282	31
-41	216	285	288	31
-37	223	290	294	31
-32	230	296	300	31
-28	237	302	307	31
-24	245	307	313	31
-19	252	313	319	31
-15	259	318	325	31
-11	266	324	332	31
-6	274	330	338	31
-2	281	335	344	31
2	288	341	350	31
7	296	347	357	31
59	137	243	294	31
50	-136	301	-185	31
62	-232	-159	44	31
-129	95	-578	454	31
-384	174	-722	228	31
-297	60	-1039	298	31
2	-26	-563	111	31
350	-54	-85	-49	31
610	103	16	21	31
458	353	109	-303	31
37	834	97	-537	31
-165	1238	197	-339	31
-215	1241	327	-198	31
-220	522	657	-318	31
26	-967	636	123	31
415	-2091	357	105	31
511	-1634	-60	-217	31
374	-475	-538	278	31
104	-54	-501	256	31
-196	67	-25	-34	31
-222	-249	785	114	31
-144	-551	919	-242	31
-90	-174	199	-401	31
-65	6	-531	-143	31
-85	58	-1035	-133	31
-19	157	-560	110	31
16	161	212	193	31
-71	199	322	105	31
-31	188	387	56	31
-32	163	11	18	31
-115	129	-401	145	31
-87	122	-360	89	31
-110	150	-526	27	31
-87	141	-328	-73	31
-30	180	100	-47	31
-8	231	199	-44	31
36	259	257	-119	31
-12	297	110	281	31
-113	274	59	448	31
-81	217	122	69	31
-3	161	127	-67	31
-19	16	254	59	31
-22	-153	258	95	31
18	-212	182	233	31
11	-177	60	289	31
77	-161	-69	143	31
53	-242	-97	-276	31
12	-194	-36	-526	31
116	-93	108	-364	31
-6	-51	190	-138	31
-24	82	126	24	31
-2	92	16	17	31
-45	-45	-165	82	31
-18	-220	-248	132	31
-107	-234	-116	84	31
-69	-87	-7	-1	31
25	12	621	69	31
113	91	1263	101	31
52	102	551	164	31
52	102	551	164	31
49	106	546	163	31
46	111	540	161	31
42	116	534	159	31
39	120	528	157	31
36	125	522	155	31
32	130	516	153	31
29	134	510	151	31
26	139	504	149	31
22	144	498	148	31
19	149	492	146	31
15	153	486	144	31
12	158	480	142	31
9	163	474	140	31
5	167	468	138	31
2	172	462	136	31
-1	177	456	134	31
-5	181	450	132	31
-8	186	444	131	31
-11	191	438	129	31
-15	196	432	127	31
-18	200	427	125	31
-22	205	421	123	31
-25	210	415	121	31
-28	214	409	119	31
-32	219	403	117	31
-35	224	397	116	31
-38	228	391	114	31
-42	233	385	112	31
-45	238	379	110	31
-49	243	373	108	31
-52	247	367	106	31
-55	252	361	104	31
-59	257	355	102	31
-62	261	349	100	31
-65	266	343	99	31
-69	271	337	97	31
-72	275	331	95	31
-75	280	325	93	31
-79	285	319	91	31
-82	290	313	89	31
-86	294	308	87	31
-89	299	302	85	31
-92	304	296	84	31
-96	308	290	82	31
-99	313	284	80	31
-102	318	278	78	31
-106	322	272	76	31
-109	327	266	74	31
-112	332	260	72	31
-116	337	254	70	31
-119	341	248	68	31
-123	346	242	67	31
-126	351	236	65	31
-129	355	230	63	31
-133	360	224	61	31
-136	365	218	59	31
-139	369	212	57	31
-143	374	206	55	31
-146	379	200	53	31
-150	384	194	51	31
-378	163	113	-64	31
-268	-48	39	-152	31
-107	-241	112	-9	31
107	-263	12	55	31
333	-113	-34	-84	31
420	-55	2	-87	31
118	-6	-292	-102	31
-72	52	-279	43	31
-15	22	-38	130	31
-87	43	-120	346	31
46	49	-176	428	31
70	107	-159	330	31
-19	224	-67	-156	31
-98	285	11	-627	31
-209	243	59	-322	31
-217	66	62	-27	31
-182	-125	114	126	31
-48	-293	184	17	31
32	-319	211	-189	31
85	-194	499	-19	31
22	-108	543	92	31
-78	-121	75	-22	31
-58	-117	-360	15	31
-70	-39	-663	97	31
-57	-17	-618	-19	31
-80	7	-184	-191	31
-109	72	-88	-39	31
-135	60	-205	160	31
-83	29	-144	156	31
-83	29	-144	156	31
-83	31	-145	148	31
-84	33	-146	140	31
-84	35	-148	132	31
-85	37	-149	123	31
-85	39	-151	115	31
-86	41	-152	107	31
-86	43	-154	98	31
-87	45	-155	90	31
-88	47	-157	82	31
-88	49	-158	73	31
-89	51	-160	65	31
-89	53	-161	57	31
-90	55	-163	48	31
-90	57	-164	40	31
-91	60	-166	32	31
-92	62	-167	23	31
-92	64	-169	15	31
-93	66	-170	7	31
-93	68	-172	-2	31
-94	70	-173	-10	31
-94	72	-175	-18	31
-95	74	-176	-26	31
-96	76	-178	-35	31
-96	78	-179	-43	31
-97	80	-181	-51	31
-97	82	-182	-60	31
-98	84	-184	-68	31
-98	86	-185	-76	31
-99	88	-187	-85	31
-100	91	-188	-93	31
-100	93	-189	-101	31
-101	95	-191	-110	31
-101	97	-192	-118	31
-102	99	-194	-126	31
-102	101	-195	-135	31
-103	103	-197	-143	31
-103	105	-198	-151	31
-104	107	-200	-160	31
-105	109	-201	-168	31
-105	111	-203	-176	31
-106	113	-204	-184	31
-106	115	-206	-193	31
-107	117	-207	-201	31
-107	119	-209	-209	31
-108	122	-210	-218	31
-109	124	-212	-226	31
-109	126	-213	-234	31
-110	128	-215	-243	31
-110	130	-216	-251	31
-111	132	-218	-259	31
-111	134	-219	-268	31
-112	136	-221	-276	31
-113	138	-222	-284	31
-113	140	-224	-293	31
-114	142	-225	-301	31
-114	144	-227	-309	31
-115	146	-228	-318	31
-115	148	-230	-326	31
-116	150	-231	-334	31
-117	153	-233	-343	31
-64	78	-273	-431	31
-4	-27	-81	-393	31
-41	1	17	-1	31
-46	34	200	188	31
-119	32	195	194	31
-122	42	189	9	31
-119	-36	137	93	31
-194	-39	44	312	31
-183	40	78	57	31
-165	-1	112	-114	31
-119	-49	212	-30	31
7	-52	192	339	31
105	-34	216	370	31
96	80	208	85	31
69	168	-11	-244	31
117	66	-124	-107	31
53	-82	-113	-161	31
-4	-39	-27	-349	31
-75	1	110	-57	31
-170	-54	-64	-138	31
-33	-29	-231	-9	31
-11	-37	-210	112	31
-19	-62	-251	15	31
-21	-156	-140	-13	31
-105	-218	-34	-80	31
-13	-61	64	-84	31
60	67	134	-34	31
84	16	141	85	31
36	-63	235	4	31
36	-63	235	4	31
36	-63	232	4	31
35	-63	228	3	31
34	-63	225	2	31
33	-63	221	1	31
33	-63	218	0	31
32	-63	214	-1	31
31	-63	211	-2	31
30	-63	207	-3	31
30	-63	204	-4	31
29	-64	200	-5	31
28	-64	197	-6	31
27	-64	193	-7	31
27	-64	190	-8	31
26	-64	186	-9	31
25	-64	183	-10	31
24	-64	179	-10	31
24	-64	176	-11	31
23	-64	172	-12	31
22	-64	169	-13	31
21	-65	165	-14	31
21	-65	162	-15	31
20	-65	158	-16	31
19	-65	155	-17	31
18	-65	151	-18	31
18	-65	148	-19	31
17	-65	144	-20	31
16	-65	141	-21	31
15	-65	137	-22	31
15	-65	134	-23	31
14	-66	130	-24	31
13	-66	127	-24	31
12	-66	123	-25	31
12	-66	120	-26	31
11	-66	116	-27	31
10	-66	113	-28	31
9	-66	109	-29	31
9	-66	106	-30	31
8	-66	102	-31	31
7	-66	99	-32	31
6	-67	95	-33	31
6	-67	92	-34	31
5	-67	88	-35	31
4	-67	85	-36	31
3	-67	81	-37	31
3	-67	78	-38	31
2	-67	74	-38	31
1	-67	71	-39	31
0	-67	67	-40	31
0	-67	64	-41	31
-1	-68	60	-42	31
-2	-68	57	-43	31
-3	-68	53	-44	31
-3	-68	50	-45	31
-4	-68	46	-46	31
-5	-68	43	-47	31
-6	-68	39	-48	31
-6	-68	36	-49	31
-7	-68	32	-50	31
-8	-68	29	-51	31
-9	-69	25	-52	31
107	-38	12	-134	31
178	-89	-56	166	31
214	33	-102	125	31
281	184	-165	242	31
146	378	-80	-15	31
-158	434	90	-352	31
-111	163	108	-485	31
-90	-192	58	-509	31
-12	-504	-53	-156	31
223	-399	-110	143	31
162	-83	-41	286	31
-34	-16	-12	191	31
-145	60	49	231	31
-181	133	223	52	31
-97	74	450	-181	31
65	46	520	-95	31
198	112	342	-22	31
595	253	247	152	31
576	301	24	157	31
21	221	-313	30	31
-29	146	-477	-160	31
-32	-87	-681	-372	31
-62	-216	-661	-227	31
45	-183	-366	16	31
-100	-276	-240	115	31
-117	-216	-127	231	31
-21	-88	125	241	31
-47	-32	144	133	31
-75	-5	120	11	31
-128	27	14	-19	31
-204	153	-29	9	31
-238	368	130	-2	31
-266	628	52	-12	31
-294	669	74	-118	31
-229	476	179	-107	31
-147	99	226	-12	31
-6	-680	181	53	31
218	-1248	-64	176	31
394	-908	-123	129	31
494	-312	-47	-28	31
268	-37	54	16	31
-16	69	85	74	31
-70	81	-15	92	31
-65	151	-69	67	31
-50	208	-60	78	31
-200	54	-19	50	31
-302	34	37	-173	31
-223	14	145	-193	31
-124	113	224	-185	31
152	475	254	-64	31
343	236	231	37	31
250	-360	254	5	31
266	-675	302	87	31
233	-559	133	-10	31
92	-308	-92	-24	31
-29	-139	-378	-65	31
-75	65	-680	-78	31
44	136	-609	4	31
-12	249	-355	62	31
-121	303	-237	102	31
-185	388	-61	-37	31
-277	398	45	-21	31
-292	216	26	31	31
-222	25	97	14	31
16	-289	100	54	31
196	-310	130	19	31
136	-116	138	4	31
79	-45	89	4	31
-36	23	83	-14	31
-369	84	82	58	31
-532	149	116	149	31
-350	154	75	146	31
2	101	70	23	31
350	51	107	-49	31
611	29	17	-42	31
513	27	-67	-50	31
82	9	-37	64	31
9	42	-14	85	31
196	90	-50	-82	31
130	91	-52	-175	31
0	137	-16	-201	31
62	146	75	-142	31
-21	98	131	-274	31
-174	35	113	-425	31
-199	-135	115	5	31
-209	-230	57	133	31
-75	-131	-117	-101	31
28	32	-141	-7	31
30	143	-32	115	31
-87	126	-158	316	31
-126	60	-111	271	31
-19	-110	75	64	31
42	-332	-43	28	31
103	-239	-79	53	31
40	-54	-50	62	31
-37	-34	10	43	31
-74	96	141	48	31
-117	168	132	16	31
-72	111	52	-70	31
-4	19	-66	-150	31
-1	-105	-146	-12	31
-8	-95	-73	6	31
44	-12	25	-77	31
33	87	95	-19	31
-59	62	259	90	31
-87	54	291	238	31
-137	120	52	114	31
-261	2	-125	153	31
-217	160	-177	398	31
-46	533	-211	238	31
49	176	-10	-160	31
136	-515	125	-242	31
69	-507	37	-136	31
-29	-236	-117	-384	31
222	-108	-329	-430	31
529	-163	-232	-87	31
466	-255	-70	-19	31
139	-199	115	-106	31
199	-361	283	-26	31
199	-361	283	-26	31
199	-355	281	-28	31
199	-348	278	-30	31
199	-341	276	-33	31
199	-334	273	-35	31
200	-327	270	-38	31
200	-320	268	-40	31
200	-313	265	-42	31
200	-306	262	-45	31
201	-299	260	-47	31
201	-292	257	-50	31
201	-285	254	-52	31
201	-279	252	-54	31
201	-272	249	-57	31
202	-265	246	-59	31
202	-258	244	-62	31
202	-251	241	-64	31
202	-244	238	-66	31
203	-237	236	-69	31
203	-230	233	-71	31
203	-223	230	-74	31
203	-216	228	-76	31
204	-209	225	-78	31
204	-202	222	-81	31
204	-196	220	-83	31
204	-189	217	-86	31
204	-182	214	-88	31
205	-175	212	-90	31
205	-168	209	-93	31
205	-161	206	-95	31
205	-154	204	-98	31
206	-147	201	-100	31
206	-140	198	-102	31
206	-133	196	-105	31
206	-126	193	-107	31
207	-119	190	-110	31
207	-113	188	-112	31
207	-106	185	-114	31
207	-99	183	-117	31
207	-92	180	-119	31
208	-85	177	-122	31
208	-78	175	-124	31
208	-71	172	-126	31
208	-64	169	-129	31
209	-57	167	-131	31
209	-50	164	-134	31
209	-43	161	-136	31
209	-37	159	-138	31
209	-30	156	-141	31
210	-23	153	-143	31
210	-16	151	-146	31
210	-9	148	-148	31
210	-2	145	-150	31
211	5	143	-153	31
211	12	140	-155	31
211	19	137	-158	31
211	26	135	-160	31
212	33	132	-162	31
212	40	129	-165	31
212	46	127	-167	31
212	53	124	-170	31
212	60	121	-172	31
213	67	119	-174	31
213	74	116	-177	31
213	81	113	-179	31
213	88	111	-182	31
214	95	108	-184	31
214	102	105	-186	31
214	109	103	-189	31
214	116	100	-191	31
215	123	97	-194	31
-70	146	83	59	31
-190	147	25	230	31
-160	59	51	-446	31
-236	-42	33	-631	31
-19	-123	21	-169	31
87	-54	108	289	31
-13	71	187	626	31
-77	153	221	512	31
-103	191	270	234	31
-65	120	181	-9	31
84	-19	-13	-641	31
125	-178	-208	-944	31
65	-103	-405	-427	31
51	17	-398	-150	31
24	-24	-126	-356	31
-117	-4	6	-29	31
-117	-34	42	310	31
125	-15	207	269	31
205	31	235	374	31
135	7	218	342	31
2	54	-26	158	31
47	40	-249	-86	31
40	9	-196	-8	31
-47	-61	-154	135	31
-102	-122	8	-10	31
-251	29	-127	26	31
-258	204	-275	-178	31
-207	262	-224	-353	31
-32	192	-164	34	31
128	27	120	156	31
94	-55	136	152	31
-98	64	6	396	31
-63	28	64	161	31
198	-327	140	-59	31
157	-308	247	175	31
16	304	166	191	31
-189	864	-208	-238	31
-448	733	-361	-29	31
-527	-62	-88	352	31
-188	-955	219	-157	31
260	-1279	662	-479	31
323	-786	810	-203	31
303	-302	194	-158	31
261	-119	-252	-588	31
146	6	-662	-456	31
122	-39	-649	-65	31
145	52	165	185	31
39	233	181	597	31
26	393	-135	507	31
71	455	-311	205	31
26	254	-537	215	31
-31	41	-241	69	31
-302	54	64	-158	31
-352	249	231	70	31
-453	190	213	2	31
-351	-35	65	-56	31
128	-153	77	337	31
404	-102	-23	75	31
471	34	-114	117	31
317	-54	-7	180	31
53	-95	240	-375	31
-124	32	577	-514	31
90	-36	821	-830	31
119	-426	720	-242	31
466	-524	344	763	31
653	-107	-102	194	31
-5	7	-392	81	31
-209	2	-692	185	31
-295	44	-785	-305	31
-225	9	-381	-208	31
17	111	-189	-681	31
-189	112	-44	-1176	31
-478	219	-127	-770	31
-595	318	-172	-41	31
-472	239	272	559	31
-165	130	539	539	31
168	-132	669	500	31
358	-202	211	456	31
416	-29	-342	965	31
184	70	-630	1414	31
-213	145	-691	979	31
-261	262	-135	832	31
-102	407	174	-37	31
-38	624	266	-1672	31
-32	620	328	-1694	31
-138	72	-103	-822	31
-75	-639	-351	-311	31
206	-770	-75	303	31
320	-582	-57	174	31
436	-422	56	-218	31
153	150	323	209	31
-92	609	273	457	31
-130	695	275	143	31
-295	214	163	143	31
105	-701	71	144	31
565	-846	270	-390	31
714	-459	375	-378	31
359	-138	241	232	31
-57	-22	71	669	31
-77	-45	-69	403	31
-259	-47	-362	-284	31
-306	71	-654	-687	31
-417	276	-713	-629	31
-470	368	-602	115	31
-310	435	-181	338	31
-194	254	97	32	31
42	-31	261	-260	31
162	-187	674	-504	31
75	12	636	39	31
-146	386	424	825	31
-324	302	264	1165	31
-453	-4	-448	827	31
-424	-426	-941	322	31
-98	-699	-677	-652	31
292	-532	-328	-1802	31
728	-148	241	-1538	31
1004	34	424	118	31
550	58	112	907	31
-7	186	145	474	31
-141	95	-7	531	31
-287	-51	87	256	31
-188	-75	247	27	31
11	27	-93	-59	31
-77	112	-194	-327	31
-378	130	-242	-201	31
-379	364	87	85	31
-178	477	482	92	31
9	412	367	-110	31
318	83	251	340	31
455	-208	-150	260	31
228	-277	-407	128	31
-249	-424	-27	332	31
-246	-143	223	289	31
-94	133	120	-34	31
-70	181	-102	-874	31
-201	207	-651	-1077	31
6	-104	-633	-692	31
547	-349	168	-46	31
347	-279	506	539	31
98	-77	538	807	31
95	-85	828	736	31
-43	-81	822	406	31
-209	133	196	-3	31
-184	220	-450	-501	31
-133	170	-1116	-405	31
52	4	-1377	122	31
-4	-103	-621	219	31
-414	-12	-24	156	31
-373	210	116	-84	31
-373	210	116	-84	31
-371	206	116	-85	31
-369	202	116	-86	31
-367	198	115	-87	31
-364	194	115	-88	31
-362	190	114	-89	31
-360	185	114	-90	31
-357	181	113	-91	31
-355	177	113	-92	31
-353	173	113	-94	31
-350	169	112	-95	31
-348	164	112	-96	31
-346	160	111	-97	31
-344	156	111	-98	31
-341	152	110	-99	31
-339	148	110	-100	31
-337	144	109	-101	31
-334	139	109	-102	31
-332	135	109	-104	31
-330	131	108	-105	31
-327	127	108	-106	31
-325	123	107	-107	31
-323	118	107	-108	31
-321	114	106	-109	31
-318	110	106	-110	31
-316	106	105	-111	31
-314	102	105	-112	31
-311	97	105	-114	31
-309	93	104	-115	31
-307	89	104	-116	31
-304	85	103	-117	31
-302	81	103	-118	31
-300	77	102	-119	31
-298	72	102	-120	31
-295	68	101	-121	31
-293	64	101	-123	31
-291	60	101	-124	31
-288	56	100	-125	31
-286	51	100	-126	31
-284	47	99	-127	31
-281	43	99	-128	31
-279	39	98	-129	31
-277	35	98	-130	31
-275	31	97	-131	31
-272	26	97	-133	31
-270	22	97	-134	31
-268	18	96	-135	31
-265	14	96	-136	31
-263	10	95	-137	31
-261	5	95	-138	31
-258	1	94	-139	31
-256	-3	94	-140	31
-254	-7	93	-141	31
-252	-11	93	-143	31
-249	-16	93	-144	31
-247	-20	92	-145	31
-245	-24	92	-146	31
-242	-28	91	-147	31
-240	-32	91	-148	31
-238	-36	90	-149	31
-235	-41	90	-150	31
-233	-45	89	-151	31
-231	-49	89	-153	31
-229	-53	89	-154	31
-226	-57	88	-155	31
-224	-62	88	-156	31
-222	-66	87	-157	31
-219	-70	87	-158	31
-217	-74	86	-159	31
-215	-78	86	-160	31
-212	-83	85	-162	31
-145	14	-22	-74	31
1	49	91	146	31
347	98	338	154	31
370	47	330	149	31
4	133	120	78	31
44	105	-122	30	31
91	61	12	-100	31
-29	52	320	-201	31
81	189	133	-175	31
39	520	-232	-54	31
-51	542	-633	21	31
-61	116	-615	-97	31
-66	-331	-262	-60	31
-22	-239	63	148	31
32	120	235	360	31
9	16	-39	265	31
-37	-433	-97	139	31
74	-728	-23	27	31
179	-351	96	-175	31
64	174	126	-100	31
-82	85	0	-23	31
-140	-28	-44	-59	31
-128	-178	41	-101	31
-37	-102	249	21	31
1	123	306	251	31
-8	170	390	193	31
-122	436	247	-10	31
-199	440	-57	-36	31
-10	299	-262	-111	31
189	17	-403	-329	31
234	-272	-132	-308	31
297	-487	179	-1	31
339	-452	115	62	31
127	-107	53	-84	31
-17	-171	-198	-50	31
1	-64	-544	60	31
-67	64	-405	184	31
-140	115	-300	75	31
-133	249	-125	-34	31
-74	233	193	1	31
-185	216	183	-35	31
-278	36	351	-74	31
-122	-75	305	83	31
-9	-90	167	221	31
126	-33	322	97	31
344	-3	391	105	31
250	-19	527	105	31
-37	47	160	98	31
-166	100	-461	155	31
-252	207	-668	-103	31
-432	294	-495	-317	31
-474	179	-67	-134	31
-290	-216	-222	-72	31
-186	-533	-570	-170	31
90	-371	-52	-89	31
601	-93	674	-198	31
441	10	873	-144	31
286	147	752	218	31
429	133	213	160	31
172	14	-508	1	31
1	-67	-970	-128	31
6	-87	-775	-89	31
75	81	-64	103	31
-36	96	396	-69	31
-268	97	390	-15	31
-473	112	-69	193	31
-350	22	-265	130	31
-98	92	-450	11	31
112	104	-270	-11	31
578	82	247	6	31
338	-20	176	-211	31
56	-184	270	-160	31
167	-16	110	127	31
-197	228	-52	63	31
-286	329	-13	45	31
-299	226	81	160	31
-363	-165	238	218	31
-112	-338	209	166	31
43	-226	443	59	31
232	-208	254	-22	31
27	-102	-58	-181	31
10	114	-288	-239	31
346	284	-522	-49	31
26	239	-204	67	31
289	-83	82	110	31
343	-300	281	196	31
-26	-363	529	97	31
160	-209	486	-17	31
-85	23	269	-221	31
-77	133	-270	-426	31
-98	95	-782	-289	31
-187	-122	-646	-130	31
-109	-136	-382	49	31
-271	-65	-87	277	31
-148	41	49	170	31
-161	87	-65	94	31
-58	77	25	112	31
199	235	126	-47	31
22	273	348	6	31
-307	-11	466	77	31
-304	-364	321	109	31
-110	-186	21	162	31
14	109	-242	141	31
233	122	-234	1	31
248	38	-74	-252	31
85	-117	397	-46	31
110	-82	651	86	31
150	16	423	-3	31
-9	81	-232	-109	31
-19	80	-855	-252	31
-7	1	-767	-226	31
90	-67	-285	11	31
222	-74	101	393	31
-72	95	20	55	31
-260	133	-52	-106	31
-277	28	0	-33	31
-106	-29	4	-113	31
229	-41	95	41	31
181	37	14	-50	31
181	37	14	-50	31
176	38	11	-48	31
170	39	8	-45	31
164	40	5	-42	31
159	42	2	-40	31
153	43	-1	-37	31
147	44	-4	-34	31
142	46	-7	-32	31
136	47	-10	-29	31
130	48	-13	-26	31
124	50	-16	-23	31
119	51	-19	-21	31
113	52	-22	-18	31
107	54	-25	-15	31
102	55	-29	-13	31
96	56	-32	-10	31
90	58	-35	-7	31
85	59	-38	-5	31
79	60	-41	-2	31
73	62	-44	1	31
67	63	-47	4	31
62	64	-50	6	31
56	66	-53	9	31
50	67	-56	12	31
45	68	-59	14	31
39	70	-62	17	31
33	71	-65	20	31
28	72	-68	22	31
22	74	-72	25	31
16	75	-75	28	31
10	76	-78	31	31
5	78	-81	33	31
-1	79	-84	36	31
-7	80	-87	39	31
-12	82	-90	41	31
-18	83	-93	44	31
-24	84	-96	47	31
-29	86	-99	49	31
-35	87	-102	52	31
-41	88	-105	55	31
-47	90	-108	58	31
-52	91	-111	60	31
-58	92	-115	63	31
-64	94	-118	66	31
-69	95	-121	68	31
-75	96	-124	71	31
-81	98	-127	74	31
-86	99	-130	76	31
-92	100	-133	79	31
-98	102	-136	82	31
-104	103	-139	85	31
-109	104	-142	87	31
-115	106	-145	90	31
-121	107	-148	93	31
-126	108	-151	95	31
-132	110	-154	98	31
-138	111	-158	101	31
-143	112	-161	103	31
-149	114	-164	106	31
-155	115	-167	109	31
-161	116	-170	112	31
-166	118	-173	114	31
-172	119	-176	117	31
-178	120	-179	120	31
-183	122	-182	122	31
-189	123	-185	125	31
-195	124	-188	128	31
-200	126	-191	130	31
-206	127	-194	133	31
-212	128	-197	136	31
-218	130	-201	139	31
-27	14	-251	59	31
166	-75	8	-87	31
328	-58	79	34	31
252	-25	-27	25	31
-11	64	-116	216	31
17	74	-87	232	31
145	4	198	-173	31
101	-75	315	41	31
80	-101	291	186	31
11	-6	152	171	31
-44	19	-11	41	31
-27	31	-36	10	31
-71	115	-4	4	31
-136	85	135	-208	31
-136	28	95	-181	31
-183	14	-4	-102	31
-282	89	-16	-72	31
-218	45	-62	-81	31
21	-173	-28	-27	31
264	-166	-83	-4	31
538	17	-118	36	31
368	52	-76	29	31
-218	-30	-137	21	31
-383	34	-105	45	31
-436	64	2	2	31
-304	14	78	0	31
81	-110	80	128	31
385	-227	-106	155	31
639	58	-251	12	31
451	373	-128	-22	31
44	457	57	-119	31
-200	403	70	-16	31
-247	-41	98	90	31
-155	-368	91	41	31
17	-381	46	80	31
65	-530	106	41	31
211	-310	141	-34	31
244	12	40	-145	31
-45	-57	-115	-90	31
-6	-80	-114	4	31
-67	-121	-80	-42	31
-65	-76	-11	-59	31
-14	50	36	-25	31
-109	74	40	51	31
-128	150	82	107	31
-246	197	22	98	31
-193	184	-62	17	31
-28	78	-136	-34	31
183	-61	-176	-26	31
139	-105	-64	-19	31
24	-85	31	15	31
16	1	74	11	31
-56	41	201	21	31
6	37	211	37	31
-17	57	116	-1	31
-14	47	-20	-2	31
-38	39	-112	-52	31
-105	63	-48	-158	31
-143	150	-105	-47	31
-210	262	-223	84	31
-140	206	-209	-65	31
22	-119	31	-161	31
129	-329	350	-11	31
104	-57	239	334	31
99	278	-77	405	31
-15	388	-256	57	31
-54	217	-181	-158	31
42	-285	23	-186	31
111	-517	19	-110	31
115	-216	-34	-52	31
-46	164	-15	27	31
-36	345	16	56	31
-6	284	6	-42	31
-14	146	21	-12	31
37	16	63	1	31
99	-32	112	-103	31
90	-214	127	-123	31
-2	-781	71	-88	31
67	-717	87	9	31
124	-199	133	145	31
17	-142	131	155	31
-105	-1	31	4	31
-133	70	-98	-146	31
-196	60	-177	-33	31
-141	132	-89	-34	31
-11	84	69	-32	31
-74	95	74	55	31
6	67	21	30	31
283	130	-72	77	31
214	191	-79	-22	31
-35	166	-48	-106	31
55	167	-55	-135	31
-37	85	-38	-82	31
-114	19	-45	49	31
5	62	-21	192	31
10	64	-37	201	31
115	-18	-89	1	31
-2	-39	-57	7	31
-34	-69	55	51	31
31	-10	153	50	31
-16	70	112	50	31
34	180	32	19	31
9	280	-50	7	31
-32	155	-80	-39	31
-148	16	-10	-59	31
-287	-65	-15	-118	31
-362	20	1	-59	31
-279	14	-10	114	31
-17	-144	-35	137	31
186	-102	67	84	31
341	-47	44	12	31
302	-95	-77	-97	31
44	-211	-111	-46	31
-37	-167	-35	39	31
74	-75	106	-69	31
112	-41	133	-59	31
150	117	70	24	31
138	301	-20	-4	31
-19	472	-76	67	31
-126	363	41	88	31
0	-2	137	-60	31
77	-277	95	-194	31
40	-289	11	-120	31
27	-444	-117	80	31
-44	-629	-222	42	31
-47	-168	-135	-97	31
-93	284	-44	-89	31
-123	372	-77	32	31
-93	248	29	9	31
-73	-224	127	-49	31
5	-474	74	85	31
46	-289	-36	177	31
64	-146	-110	44	31
25	-64	-60	-49	31
-44	29	-13	49	31
-80	70	14	-6	31
-90	113	27	-107	31
-74	55	88	-30	31
-44	22	176	108	31
11	-22	89	94	31
72	-55	-98	9	31
66	87	-204	6	31
55	148	-198	-67	31
105	208	-20	-126	31
87	273	170	-47	31
28	273	117	-183	31
-17	197	54	-233	31
-16	-36	93	79	31
2	-224	140	94	31
-24	-178	166	91	31
-36	-27	138	67	31
-87	39	91	-89	31
-140	109	23	-74	31
-136	113	-39	118	31
-85	57	-29	282	31
16	19	14	166	31
113	37	-62	115	31
105	50	-124	95	31
-4	23	-87	87	31
-50	41	-136	128	31
5	-27	-300	138	31
107	-62	-315	42	31
40	-85	-188	-330	31
-47	-88	-38	-510	31
7	-39	46	-314	31
-46	-12	75	99	31
-22	34	150	118	31
18	-19	48	-104	31
1	-77	-7	21	31
11	-149	58	41	31
4	-161	132	-27	31
38	-26	238	-90	31
9	15	205	53	31
4	42	49	52	31
30	115	-168	-72	31
-2	253	-275	14	31
-49	459	-259	13	31
-102	621	-138	2	31
-140	560	36	-69	31
-97	203	46	-38	31
18	-123	82	16	31
29	-668	199	51	31
14	-1000	165	68	31
89	-644	24	47	31
94	-504	-72	62	31
80	-238	-128	52	31
132	47	-77	120	31
105	9	55	102	31
65	128	119	50	31
49	43	140	0	31
-7	104	123	-32	31
-103	267	92	67	31
-211	269	119	61	31
-232	287	80	-6	31
-208	80	-72	-47	31
-224	-115	-158	-75	31
-85	-162	-181	6	31
171	-97	-115	-22	31
89	240	17	-21	31
-37	460	29	-27	31
13	166	-60	-171	31
-46	-278	-86	-33	31
82	-503	-30	30	31
186	-335	-22	-39	31
161	-161	-11	-67	31
153	-118	38	-129	31
69	13	76	-63	31
51	48	21	-6	31
-18	74	-4	60	31
-17	57	87	77	31
0	46	257	59	31
-47	79	320	4	31
-34	108	100	65	31
-14	155	-135	381	31
-19	57	-290	238	31
-53	-50	-328	-305	31
-36	-25	-196	-284	31
-37	41	-54	-50	31
-50	80	-46	-54	31
-58	201	-16	26	31
-105	475	24	-12	31
-167	724	8	47	31
-165	814	30	120	31
-74	674	12	151	31
-163	426	12	153	31
-287	302	49	-24	31
-181	103	161	-166	31
5	-461	213	-163	31
373	-1506	173	-80	31
706	-1932	92	-86	31
715	-1165	-201	-33	31
501	-606	-352	-123	31
87	-283	-232	-132	31
-99	-59	-8	118	31
-158	28	165	289	31
-247	205	216	26	31
-116	203	239	-159	31
-69	255	138	89	31
-24	263	80	-49	31
-24	263	80	-49	31
-27	268	82	-49	31
-31	274	85	-48	31
-35	280	87	-47	31
-39	285	90	-46	31
-43	291	92	-45	31
-47	297	95	-45	31
-51	302	97	-44	31
-55	308	100	-43	31
-59	314	102	-42	31
-63	319	105	-41	31
-66	325	107	-40	31
-70	331	110	-40	31
-74	336	112	-39	31
-78	342	115	-38	31
-82	348	117	-37	31
-86	353	120	-36	31
-90	359	122	-35	31
-94	365	125	-35	31
-98	371	127	-34	31
-102	376	130	-33	31
-105	382	132	-32	31
-109	388	135	-31	31
-113	393	137	-30	31
-117	399	140	-30	31
-121	405	142	-29	31
-125	410	145	-28	31
-129	416	147	-27	31
-133	422	150	-26	31
-137	427	152	-25	31
-141	433	155	-25	31
-144	439	157	-24	31
-148	444	160	-23	31
-152	450	162	-22	31
-156	456	165	-21	31
-160	462	167	-20	31
-164	467	170	-20	31
-168	473	172	-19	31
-172	479	175	-18	31
-176	484	177	-17	31
-180	490	180	-16	31
-183	496	182	-16	31
-187	501	185	-15	31
-191	507	187	-14	31
-195	513	190	-13	31
-199	518	192	-12	31
-203	524	195	-11	31
-207	530	197	-11	31
-211	535	200	-10	31
-215	541	202	-9	31
-219	547	205	-8	31
-222	552	207	-7	31
-226	558	210	-6	31
-230	564	212	-6	31
-234	570	215	-5	31
-238	575	217	-4	31
-242	581	220	-3	31
-246	587	222	-2	31
-250	592	225	-1	31
-254	598	227	-1	31
-258	604	230	0	31
-261	609	232	1	31
-265	615	235	2	31
-269	621	237	3	31
-273	626	240	4	31
-277	632	242	4	31
-281	638	245	5	31
-285	643	247	6	31
-289	649	250	7	31
-293	655	252	8	31
-297	661	255	9	31
-320	699	202	236	31
-237	567	82	55	31
-32	-48	-131	-330	31
64	-821	-299	-226	31
145	-619	-78	-77	31
189	-43	132	-67	31
10	277	151	119	31
-163	796	169	291	31
-239	932	180	130	31
-239	607	118	22	31
-183	116	88	-33	31
-59	-143	43	-67	31
59	-287	-42	89	31
140	-669	-17	-2	31
128	-558	-26	-78	31
94	-378	108	-65	31
49	-125	323	-143	31
-11	1	196	-23	31
79	-161	11	122	31
42	302	16	142	31
-120	1021	360	185	31
-358	1866	562	180	31
-572	1986	275	-166	31
-496	1021	-258	-416	31
-198	-1119	-1167	-211	31
262	-2305	-1271	97	31
560	-1649	-378	163	31
511	-743	28	52	31
265	-684	172	94	31
58	-250	181	51	31
-140	682	71	-139	31
-302	1701	544	-338	31
-309	1610	898	-199	31
-340	1329	646	363	31
-99	652	113	561	31
227	105	-552	246	31
128	-327	-823	-135	31
0	-1773	-285	-320	31
155	-1891	257	-262	31
364	-464	136	-103	31
304	51	-275	-95	31
39	-255	-396	-26	31
-44	-1043	-305	56	31
177	-1630	-257	72	31
456	-590	107	85	31
352	-72	381	-105	31
31	74	460	-101	31
-37	773	481	20	31
-107	477	193	44	31
-163	107	-270	100	31
41	-449	-525	179	31
155	-641	-380	129	31
107	-173	-307	-83	31
-166	-308	-55	-188	31
-439	7	184	-108	31
-368	391	216	7	31
-191	373	285	208	31
133	489	52	151	31
363	424	48	-131	31
203	409	300	-89	31
-68	366	520	-169	31
-90	412	401	-140	31
-116	614	-65	24	31
-232	703	-279	141	31
-169	636	-129	263	31
-75	337	512	169	31
23	208	873	126	31
-4	463	183	78	31
-103	672	-715	-23	31
-237	432	-1255	-101	31
-384	350	-1093	99	31
-503	1171	-278	87	31
-595	1716	203	42	31
-386	221	231	46	31
80	-2182	149	-311	31
718	-2306	146	-391	31
1000	-1031	153	-335	31
638	-100	123	-92	31
183	746	88	184	31
-85	1038	83	130	31
-173	955	262	132	31
-241	611	478	80	31
-135	-915	432	-44	31
136	-1760	-53	-95	31
345	-1189	-206	18	31
306	-299	-163	219	31
-6	283	-278	39	31
-235	652	136	-35	31
-338	586	-12	76	31
-309	-173	-806	39	31
-155	-639	-647	-80	31
17	-522	-151	-193	31
117	-460	-271	-14	31
201	-280	-257	159	31
267	-349	14	182	31
176	-388	101	33	31
42	135	254	-238	31
-95	224	437	-281	31
-173	463	513	-213	31
-233	983	448	-42	31
-291	875	306	138	31
-214	539	-57	209	31
-82	-229	-275	42	31
167	-1292	-151	-107	31
308	-828	-241	8	31
196	-91	-120	92	31
110	-479	60	79	31
34	-379	-45	47	31
47	-357	49	90	31
36	-160	196	74	31
-42	186	279	2	31
-67	265	270	-20	31
-88	635	110	-26	31
-80	651	-112	-224	31
-60	542	-191	-233	31
6	66	-17	53	31
9	-194	89	115	31
60	60	127	-32	31
185	-234	171	-84	31
51	-703	19	120	31
-42	-698	-253	243	31
-12	-421	-281	211	31
-85	-336	-203	107	31
-120	-183	17	-28	31
-189	106	470	-113	31
-204	480	492	-178	31
-188	742	127	-77	31
-206	519	-318	-70	31
-200	-77	-608	-52	31
-133	-399	-325	153	31
-45	-156	93	164	31
18	-305	134	208	31
332	-421	152	95	31
559	-365	140	-72	31
556	-251	382	47	31
476	244	942	128	31
72	198	415	337	31
-145	323	-547	156	31
-160	735	-1149	-681	31
-405	1023	-1537	-901	31
-460	1169	-578	-357	31
-385	717	317	-124	31
-285	93	149	62	31
-168	-661	92	254	31
1	-684	72	125	31
241	34	409	71	31
229	608	386	77	31
234	230	61	-22	31
393	-1554	610	-133	31
439	-1676	1291	-47	31
251	166	1066	-41	31
-82	1104	-136	-142	31
-376	1075	-1471	-42	31
-319	-217	-1910	193	31
90	-1874	-697	310	31
454	-1362	416	256	31
461	-191	507	178	31
237	64	633	152	31
122	654	241	174	31
-157	747	-237	64	31
-401	408	-684	-110	31
-428	63	-809	-65	31
-438	32	-324	-72	31
-373	222	163	-265	31
-367	26	376	-191	31
-233	499	143	143	31
45	486	39	254	31
243	-703	52	-41	31
449	-1411	164	-70	31
585	-914	193	166	31
400	19	355	279	31
101	722	649	445	31
-7	1083	372	427	31
-88	797	-22	79	31
-57	122	-323	-322	31
-22	-708	-664	-661	31
-116	-461	-350	-1066	31
-125	-287	166	-709	31
-273	-592	39	142	31
-180	-32	74	275	31
211	10	86	233	31
153	165	10	238	31
61	347	64	128	31
27	234	47	16	31
-62	17	85	-120	31
25	-202	84	-198	31
10	373	292	-109	31
-89	629	413	-11	31
-217	1036	363	3	31
-396	1233	193	168	31
-545	589	-12	161	31
-451	-163	-2	209	31
-180	-1415	-3	336	31
-6	-1153	-255	22	31
266	86	-348	-80	31
517	-10	-60	103	31
592	229	104	35	31
590	212	116	-112	31
307	-334	-14	-71	31
51	-331	-54	217	31
79	-353	170	332	31
26	-17	457	107	31
-47	284	830	7	31
-62	278	803	37	31
-153	296	-442	94	31
-240	454	-1374	87	31
-228	822	-1646	45	31
-254	674	-1859	-235	31
-264	-117	-790	-37	31
-2	-1034	-152	519	31
215	-1100	-52	158	31
188	-437	519	-177	31
27	-460	699	-564	31
-77	-215	811	-840	31
-64	298	587	-538	31
-72	26	160	185	31
-27	-88	-194	812	31
-7	169	-588	494	31
-17	910	-561	-142	31
-65	902	-27	-700	31
-87	-265	371	-1053	31
-1	-747	566	-1805	31
57	-598	764	-1503	31
54	-309	515	607	31
12	505	192	1559	31
-55	1375	38	909	31
-92	1119	85	500	31
50	-189	27	204	31
163	-1494	-173	-159	31
173	-925	-150	48	31
119	197	-97	173	31
-51	-75	14	103	31
-65	-324	-119	47	31
-32	-532	-197	88	31
10	-39	-66	213	31
2	451	75	249	31
-82	61	113	310	31
-31	-319	4	100	31
96	-512	63	-32	31
173	11	21	12	31
16	299	-13	-5	31
-140	302	-34	37	31
-148	143	-174	2	31
-102	-27	-214	-62	31
-26	208	-130	2	31
-8	82	147	113	31
53	168	319	124	31
23	397	218	29	31
-82	412	140	-42	31
-187	752	24	-138	31
-458	1735	-79	-60	31
-779	1921	-145	227	31
-855	877	-75	122	31
-244	-1420	226	-300	31
818	-2344	475	-462	31
1441	-998	547	-236	31
1204	531	290	-143	31
463	747	-119	-194	31
64	1112	-443	202	31
-9	700	-393	399	31
-106	634	-267	274	31
-29	240	-354	212	31
25	155	-361	49	31
-10	314	-431	-113	31
-50	78	-271	-431	31
-103	96	-100	-431	31
-155	-125	-97	-256	31
-223	-172	47	-444	31
-303	35	153	-390	31
-463	236	126	122	31
-603	70	87	458	31
-535	-390	7	108	31
-204	-937	-71	52	31
204	-994	-9	256	31
559	-113	62	154	31
464	-100	274	199	31
27	-788	347	242	31
-115	-907	105	277	31
-77	-484	-57	249	31
5	33	-254	550	31
-67	99	-108	495	31
-43	194	385	-69	31
154	-229	370	-565	31
227	-1046	163	-962	31
347	-1003	-140	-724	31
274	-622	-536	-485	31
145	-356	-267	-41	31
9	-129	114	164	31
-226	-52	140	95	31
-266	-99	92	289	31
-111	-275	30	118	31
36	-136	19	36	31
-59	431	106	-4	31
-155	535	280	69	31
-142	-132	398	-14	31
-111	-275	383	-34	31
-35	585	149	235	31
-34	413	-208	138	31
51	-896	-560	165	31
307	-1422	-666	145	31
342	-597	-493	-98	31
116	148	-292	-153	31
77	55	38	-278	31
-19	298	234	-226	31
-198	320	275	65	31
-212	507	411	41	31
-234	887	338	41	31
-229	644	225	-56	31
-124	60	133	-229	31
113	-648	-22	178	31
256	-554	-71	544	31
183	-294	-285	470	31
49	48	-716	166	31
-67	237	-794	-160	31
-162	150	-530	-370	31
-160	163	-143	-571	31
-64	-92	162	-417	31
-31	474	140	-234	31
77	923	295	-146	31
148	623	351	105	31
31	-143	224	250	31
26	-937	73	309	31
118	-322	-135	408	31
110	125	-87	585	31
20	-9	160	453	31
-35	7	560	226	31
65	-350	626	-36	31
19	-307	331	-413	31
-43	15	-7	-711	31
35	274	-77	-543	31
-28	510	-18	98	31
-117	671	-150	167	31
-267	958	-186	127	31
-373	1398	-291	-14	31
-378	1802	-224	-159	31
-262	1050	-22	-106	31
117	-659	130	-117	31
398	-1749	296	173	31
499	-1851	305	137	31
360	-1378	277	-89	31
-25	-1218	290	-214	31
-169	-872	431	289	31
-119	-271	474	668	31
-35	-251	44	535	31
77	173	-818	320	31
212	426	-1285	-561	31
123	522	-1299	-1103	31
-209	1000	-835	-577	31
-239	1368	49	225	31
-244	1614	170	312	31
-161	881	13	-170	31
65	-376	-29	-321	31
208	-1369	-70	239	31
349	-1201	42	448	31
322	-517	173	236	31
140	-453	322	153	31
-105	74	424	3	31
-108	249	550	-401	31
-84	170	438	-810	31
9	26	318	-547	31
70	-380	127	156	31
-39	-181	-97	377	31
15	-141	11	348	31
-46	1	32	510	31
-52	277	166	86	31
-54	289	282	101	31
-157	551	31	348	31
-166	691	-146	-32	31
-189	513	-160	5	31
-103	-70	-286	216	31
35	-472	-335	42	31
165	169	-166	-264	31
94	1111	-171	-444	31
-201	1330	-97	-326	31
-241	636	3	-12	31
-100	-660	102	163	31
57	-1217	621	54	31
107	-322	1131	-95	31
134	-183	947	-145	31
240	-550	41	14	31
87	-302	-960	174	31
-36	-294	-1638	50	31
39	-12	-1180	133	31
195	-267	-318	158	31
310	-661	-134	113	31
150	-424	109	106	31
77	-212	277	-57	31
29	153	249	-164	31
-79	290	218	-107	31
-127	322	-27	359	31
-312	539	-165	696	31
-353	964	33	257	31
-355	1411	204	-216	31
-299	951	312	-420	31
-127	-498	368	-757	31
105	-1410	302	-489	31
458	-1319	290	135	31
541	-785	169	130	31
388	-473	43	155	31
120	-292	-26	285	31
16	97	237	188	31
27	-50	474	49	31
-145	71	-15	-55	31
-168	447	-424	74	31
-286	838	-591	-317	31
-349	1038	-246	-502	31
-169	248	452	-72	31
-7	-690	376	-175	31
141	-647	69	-128	31
30	-36	-187	-112	31
-103	-116	-424	-156	31
39	91	-311	219	31
203	302	-27	195	31
229	159	150	330	31
231	133	-125	256	31
183	-100	-464	102	31
-7	105	-534	-38	31
-183	17	-254	-600	31
-246	-126	9	-306	31
-262	74	-30	290	31
-393	168	0	470	31
-441	374	138	380	31
-199	301	320	323	31
-100	184	229	172	31
41	455	151	-156	31
440	686	250	-366	31
309	-10	247	-375	31
152	-1125	158	-84	31
358	-1421	-7	7	31
217	-808	-54	53	31
137	-285	-34	49	31
41	-112	5	-54	31
-94	187	68	7	31
-89	108	78	128	31
-175	-14	120	93	31
-129	2	78	39	31
-29	61	-21	-22	31
59	166	-26	6	31
105	135	65	60	31
136	204	-22	153	31
46	201	-98	573	31
-83	368	119	282	31
-79	738	-11	11	31
-119	899	-9	-239	31
-108	474	176	-822	31
-91	-300	-280	-601	31
18	-785	-476	-293	31
83	-618	-393	115	31
-46	73	-469	337	31
-111	247	-87	160	31
-77	51	116	247	31
-56	-40	-70	412	31
-125	-225	89	38	31
-137	-357	484	-554	31
-71	-423	910	-431	31
72	-417	822	-194	31
218	-68	247	232	31
279	99	-483	364	31
252	-38	-992	415	31
105	37	-721	703	31
-58	30	-154	148	31
21	149	54	-584	31
87	188	0	-734	31
-65	164	163	-266	31
-42	357	613	-176	31
-143	577	973	7	31
-306	884	687	194	31
-340	717	-76	29	31
-362	-139	-961	-273	31
-16	-1193	-1390	-345	31
501	-1322	-821	90	31
522	-392	103	5	31
47	45	194	365	31
-120	52	4	598	31
-142	284	105	150	31
-158	583	153	267	31
-1	1097	383	366	31
-49	942	177	-322	31
-77	-196	-29	-772	31
-113	-1152	-48	-722	31
19	-1164	-26	-358	31
133	-389	224	145	31
77	-141	252	100	31
98	-369	302	62	31
-9	-197	107	-87	31
31	107	-100	52	31
99	392	-22	660	31
101	378	-184	855	31
160	-49	-322	499	31
69	-424	-108	173	31
-39	-205	102	-152	31
49	155	130	-678	31
174	161	256	-270	31
179	316	262	186	31
21	258	138	359	31
-141	117	280	497	31
-55	115	718	398	31
-116	-161	726	382	31
-295	-108	252	-423	31
-204	-6	-358	-1083	31
-237	-39	-1459	-807	31
-338	140	-1574	-400	31
-169	239	-610	-248	31
211	409	-74	37	31
373	177	223	487	31
119	-280	310	609	31
166	-127	45	271	31
64	401	-85	-623	31
-388	628	133	-813	31
-462	279	125	16	31
-508	-217	59	173	31
-299	-390	165	698	31
158	42	193	856	31
312	294	217	119	31
289	-31	56	105	31
429	-328	32	-396	31
423	-336	136	-951	31
380	-537	85	-337	31
715	-747	-3	375	31
582	-280	150	80	31
-67	54	403	100	31
-198	221	196	-3	31
2	474	-32	-310	31
36	432	-274	131	31
-61	217	-539	130	31
-168	-229	-371	-155	31
-145	-1059	-29	-168	31
-340	-750	251	118	31
-579	110	406	261	31
-580	-187	260	252	31
-467	-72	31	346	31
-144	132	-205	321	31
330	255	-458	52	31
481	402	-234	-348	31
125	143	50	-190	31
27	226	63	-80	31
-66	151	156	-301	31
-307	234	64	-237	31
-307	452	-264	45	31
-602	677	-320	386	31
-603	967	-128	630	31
-1	729	-76	477	31
165	-128	-81	297	31
-26	-1472	-34	-81	31
532	-1247	106	-961	31
768	12	613	-890	31
269	215	755	28	31
248	260	21	319	31
-11	-199	-451	188	31
-11	-199	-451	188	31
-32	-155	-499	133	31
-53	-111	-547	77	31
-74	-67	-596	22	31
-95	-23	-644	-34	31
-116	21	-693	-89	31
-137	65	-741	-145	31
-158	109	-789	-200	31
-179	153	-838	-256	31
-200	197	-886	-311	31
-221	242	-935	-367	31
-361	33	-1093	-33	31
-39	3	-585	146	31
130	45	-376	152	31
2	156	164	444	31
-208	522	888	592	31
-337	633	323	113	31
-673	226	-382	-188	31
-415	-712	-847	194	31
230	-1052	-967	638	31
507	-398	-105	-49	31
722	-1	421	-483	31
237	-31	413	279	31
-128	-7	201	368	31
-65	-38	-62	-73	31
-85	57	107	-224	31
80	156	306	-574	31
13	348	292	-279	31
56	567	-3	-105	31
8	532	-158	-118	31
-236	523	18	81	31
-153	130	181	55	31
-50	-257	255	260	31
-228	-567	194	55	31
-170	-994	156	-156	31
348	-567	92	142	31
383	-94	127	256	31
170	-40	276	57	31
-100	158	209	-145	31
-141	135	-115	-89	31
-49	187	-355	44	31
-229	269	-151	251	31
94	173	389	323	31
242	79	896	77	31
-115	-131	699	251	31
-364	-59	-52	199	31
-274	257	-891	-254	31
7	241	-1725	-262	31
355	55	-1238	-602	31
154	-70	-260	-539	31
-506	-7	-102	735	31
-415	108	162	561	31
-157	-105	223	-267	31
130	-373	376	-8	31
449	-537	512	10	31
714	-263	-2	161	31
681	56	-27	-150	31
46	-7	-40	-717	31
14	88	-358	-525	31
16	118	-6	222	31
16	118	-6	222	31
22	120	-1	222	31
29	122	5	222	31
36	125	11	222	31
43	127	17	221	31
50	130	22	221	31
56	132	28	221	31
63	134	34	220	31
70	137	40	220	31
77	139	45	220	31
84	142	51	219	31
90	144	57	219	31
97	147	63	219	31
104	149	68	218	31
111	151	74	218	31
118	154	80	218	31
125	156	86	217	31
131	159	91	217	31
138	161	97	217	31
145	163	103	216	31
152	166	109	216	31
159	168	114	216	31
165	171	120	216	31
172	173	126	215	31
179	176	132	215	31
186	178	137	215	31
193	180	143	214	31
200	183	149	214	31
206	185	155	214	31
213	188	160	213	31
220	190	166	213	31
227	192	172	213	31
234	195	178	212	31
240	197	183	212	31
247	200	189	212	31
254	202	195	211	31
261	205	201	211	31
268	207	206	211	31
275	209	212	210	31
281	212	218	210	31
288	214	224	210	31
295	217	229	210	31
302	219	235	209	31
309	221	241	209	31
315	224	247	209	31
322	226	252	208	31
329	229	258	208	31
336	231	264	208	31
343	234	270	207	31
350	236	275	207	31
356	238	281	207	31
363	241	287	206	31
370	243	293	206	31
377	246	298	206	31
384	248	304	205	31
390	250	310	205	31
397	253	316	205	31
404	255	321	204	31
411	258	327	204	31
418	260	333	204	31
425	263	339	203	31
219	170	108	180	31
2	99	-350	130	31
-100	243	-259	97	31
28	175	-40	181	31
51	-35	210	243	31
44	-194	289	87	31
160	-254	178	-161	31
-1	-113	21	-167	31
-109	225	27	-15	31
-140	515	276	-215	31
-234	412	161	138	31
-335	17	31	250	31
-80	-249	69	-542	31
245	-103	112	-645	31
84	32	131	-110	31
0	-100	241	100	31
90	-64	85	-7	31
85	-117	-261	247	31
128	-360	-464	426	31
-41	-284	-787	338	31
-217	-65	-591	384	31
-165	29	-105	-151	31
-160	241	64	-260	31
216	298	149	-17	31
450	-83	99	-622	31
175	-615	208	-260	31
204	-550	448	535	31
314	-68	356	301	31
42	45	-287	-75	31
-288	217	-751	-110	31
-267	214	-368	-92	31
-206	-3	-16	-203	31
-80	3	317	11	31
172	21	358	267	31
54	107	-74	-75	31
-43	156	-50	160	31
-75	139	136	175	31
-15	122	181	-449	31
97	225	122	-539	31
-122	441	254	-235	31
-7	532	939	254	31
68	394	1662	295	31
44	109	895	383	31
85	-122	-717	115	31
-14	-399	-1671	-20	31
-107	-334	-1963	226	31
-362	-75	-918	-142	31
-255	-18	-203	-378	31
1	35	-129	-330	31
75	-247	279	84	31
150	-426	358	522	31
156	-289	457	36	31
79	-163	200	-188	31
112	-104	-93	268	31
46	-79	-95	40	31
-33	50	52	94	31
83	101	201	224	31
-45	124	171	-2	31
-123	105	247	-100	31
-298	105	82	-49	31
-377	262	-135	194	31
-140	404	-185	-103	31
83	237	-193	-207	31
264	-178	120	-324	31
75	-370	279	-432	31
-83	-176	70	-41	31
-62	242	63	94	31
69	404	181	279	31
347	206	371	671	31
252	-150	470	625	31
10	-201	177	46	31
-80	65	-448	-113	31
-230	57	-754	-567	31
-385	-275	-663	-853	31
-198	-440	-196	-115	31
390	-9	209	-66	31
566	31	26	-98	31
181	-281	157	-52	31
9	-248	150	-138	31
-28	-189	133	198	31
5	-51	363	150	31
79	-5	284	104	31
-19	55	-50	-53	31
-26	95	-264	38	31
-50	100	-356	516	31
-100	260	-342	497	31
-187	424	161	226	31
-240	446	217	-468	31
-37	142	60	-633	31
116	-141	7	-51	31
74	-98	-44	-82	31
-132	219	106	-25	31
-171	581	74	171	31
-166	634	319	215	31
-144	221	696	105	31
112	-651	792	-125	31
329	-1190	307	22	31
346	-738	-631	194	31
97	-414	-1190	320	31
-86	-280	-1058	120	31
-163	44	-515	-292	31
-118	-65	-133	-249	31
126	51	16	26	31
146	105	186	67	31
-23	73	210	39	31
-18	232	162	39	31
-37	264	206	20	31
-47	389	369	179	31
10	251	487	545	31
-133	111	163	405	31
-137	15	-211	-404	31
-47	-79	-486	-583	31
-21	-158	-518	-222	31
62	-52	5	-672	31
26	216	391	-669	31
-77	46	722	342	31
-100	-8	955	266	31
28	-3	456	-19	31
-4	52	-264	39	31
-178	85	-931	21	31
-152	-141	-883	134	31
-72	-82	-209	88	31
180	-84	-75	-17	31
233	-38	-110	-270	31
-121	64	88	-262	31
-213	47	75	282	31
261	382	-19	509	31
277	679	-8	245	31
-90	400	-13	258	31
103	-327	166	-163	31
-38	-978	349	-434	31
-99	-819	282	35	31
1	-118	101	-132	31
-48	-75	-1	-143	31
163	-145	-62	238	31
174	-52	14	102	31
156	-121	-81	209	31
137	120	-355	450	31
161	169	-194	127	31
39	218	-102	-255	31
-99	429	67	-642	31
-61	414	157	-477	31
-115	242	25	65	31
-118	-14	160	9	31
-145	49	312	88	31
-60	273	460	84	31
-50	490	221	65	31
-75	480	-128	232	31
11	-194	-404	143	31
25	-744	-360	107	31
55	-623	31	62	31
42	-581	22	14	31
-10	-455	-84	-90	31
-117	-183	-248	-201	31
-121	-249	-266	-207	31
-70	-27	-32	-160	31
-130	53	122	192	31
-54	28	249	480	31
137	158	90	194	31
59	110	-55	91	31
-170	217	310	50	31
-24	208	477	39	31
79	189	152	487	31
33	110	-295	648	31
183	-27	-624	136	31
135	31	-398	-836	31
6	-12	166	-1212	31
36	-29	444	-896	31
-46	126	282	-150	31
-223	277	-20	178	31
-258	375	-317	52	31
-140	360	-371	342	31
-7	226	-236	57	31
115	155	84	62	31
277	231	250	67	31
381	-16	-38	-117	31
264	-607	-313	161	31
26	-710	-363	42	31
-88	-564	72	69	31
-157	-345	292	119	31
-138	-143	227	2	31
-92	-92	185	-7	31
-75	71	178	87	31
-87	55	557	90	31
-94	181	553	147	31
90	353	209	259	31
31	370	-189	185	31
-128	181	-769	-196	31
-71	-189	-696	-574	31
-35	-99	-391	-352	31
76	-34	-274	26	31
31	-95	105	487	31
-29	-17	231	408	31
57	-149	161	-11	31
10	-118	-1	10	31
142	69	-158	272	31
153	248	-127	428	31
103	384	82	231	31
-14	123	353	-142	31
-175	-238	253	-719	31
-4	-283	223	-674	31
-6	-82	24	-494	31
34	88	-216	-389	31
75	351	-160	361	31
-27	356	-242	415	31
-17	72	-12	-287	31
35	-19	192	-188	31
194	-47	129	271	31
252	100	144	144	31
-61	131	103	172	31
-237	-103	168	216	31
-173	-376	159	196	31
-131	-482	-11	272	31
-69	-500	-208	326	31
-82	-403	-392	64	31
85	-72	-250	-423	31
178	23	-22	-287	31
-7	76	-2	-87	31
-58	78	126	-209	31
-93	54	250	-443	31
-161	115	149	-127	31
-68	69	59	312	31
17	175	132	190	31
18	294	526	82	31
36	302	782	-81	31
26	162	258	-153	31
-54	-74	-514	-122	31
-142	-63	-933	1	31
-133	71	-739	37	31
-75	-19	-224	-7	31
9	-49	35	122	31
135	21	86	-103	31
191	67	-219	-211	31
123	-9	-441	289	31
74	-288	-161	641	31
125	-160	14	535	31
84	2	-35	593	31
32	-15	24	148	31
-16	74	124	-598	31
-66	85	241	-486	31
1	178	330	-456	31
-60	219	264	-378	31
-108	154	175	-105	31
-120	36	65	57	31
-112	-33	-3	167	31
77	153	49	32	31
40	309	148	-52	31
-66	41	165	6	31
52	-246	158	108	31
172	-383	206	10	31
199	-479	166	-146	31
123	-154	-89	-140	31
8	-19	-368	154	31
-191	-70	-313	234	31
-328	-59	-42	-152	31
-206	-100	36	-155	31
-118	47	-26	12	31
-75	9	-53	51	31
161	14	-179	120	31
264	86	-182	101	31
153	223	16	-1	31
37	578	234	-14	31
-123	637	294	115	31
-269	229	128	197	31
-253	-258	-153	127	31
-21	-32	-394	1	31
9	404	-342	-57	31
-14	39	-153	-335	31
109	-664	-2	-300	31
245	-826	128	48	31
388	-599	186	90	31
278	-426	210	125	31
108	-106	244	70	31
-89	5	219	26	31
-161	22	103	61	31
-79	143	-30	72	31
-16	246	-128	29	31
-166	440	-241	52	31
-302	244	-165	155	31
-24	-181	47	82	31
69	-234	115	-94	31
209	100	307	-204	31
328	253	479	-16	31
200	222	383	105	31
125	240	-62	124	31
-96	-70	-553	31	31
-149	-358	-697	-277	31
-88	-202	-624	-321	31
-99	-34	-353	-178	31
60	-110	-95	72	31
134	-5	64	156	31
-36	118	100	185	31
-105	49	202	155	31
-91	-26	324	36	31
-128	-67	300	80	31
-77	58	184	183	31
-98	82	-11	50	31
-76	146	-87	-457	31
30	176	-57	-583	31
64	26	7	-215	31
70	-67	41	36	31
55	-142	75	56	31
-27	7	67	-4	31
-80	153	17	-111	31
-33	126	-98	241	31
-44	17	-90	501	31
-47	-49	89	236	31
-82	83	109	-139	31
-109	90	129	-346	31
-18	-89	-18	148	31
-10	26	-202	465	31
-20	270	-101	188	31
-31	-6	17	-123	31
-69	-383	93	-509	31
50	-389	200	-729	31
165	-212	221	-269	31
141	-25	52	87	31
29	203	-200	69	31
-85	391	-338	92	31
-84	249	-182	57	31
-31	-204	-59	81	31
92	-459	-12	-42	31
140	-210	140	233	31
74	-69	133	440	31
23	-74	31	-32	31
-89	-4	-37	-54	31
-108	45	16	21	31
-41	117	103	0	31
-14	87	77	223	31
67	126	100	195	31
103	214	132	203	31
32	282	-35	168	31
-14	246	-203	-110	31
-27	57	-203	-345	31
-24	37	-150	-141	31
-7	131	111	141	31
-30	39	147	87	31
-38	-158	-106	-2	31
-15	-366	-178	-42	31
14	-356	-128	5	31
32	-142	21	103	31
-42	-27	17	143	31
-120	501	47	118	31
-106	849	84	368	31
-21	475	-33	521	31
77	-319	-83	125	31
117	-900	-166	-541	31
102	-459	-117	-969	31
107	-274	332	-825	31
70	-222	745	-519	31
-106	20	628	-141	31
-145	-52	176	208	31
-185	135	-307	165	31
-182	107	-582	65	31
206	24	-420	125	31
348	-68	-52	-2	31
174	-188	31	-9	31
36	-53	91	44	31
-134	22	-41	114	31
-102	97	-275	289	31
32	84	-167	130	31
87	83	-78	53	31
135	117	97	-72	31
57	120	224	-127	31
-24	104	242	135	31
49	12	50	110	31
17	9	-179	204	31
-26	12	-64	197	31
-19	-1	-54	92	31
-92	12	-121	112	31
-59	-1	-99	-64	31
-66	6	-56	-124	31
-118	-16	-1	-120	31
-159	27	7	-78	31
-166	165	7	-148	31
-108	219	13	-195	31
-52	105	-9	-33	31
56	-110	55	135	31
166	-190	129	251	31
179	-37	131	395	31
-19	-12	112	118	31
-77	-72	131	-433	31
-22	11	122	-297	31
-78	122	-118	-113	31
-152	354	-203	216	31
-183	375	-141	246	31
1	41	7	-86	31
93	-346	208	-80	31
229	-399	146	-338	31
229	-104	45	-122	31
15	-176	-22	72	31
-19	-204	-86	120	31
-68	-15	-107	72	31
64	-4	-21	-269	31
97	82	-12	29	31
0	-55	-24	90	31
5	-149	9	35	31
6	14	-42	86	31
79	37	-88	28	31
79	37	-88	28	31
77	39	-85	27	31
74	41	-82	26	31
71	43	-79	24	31
68	45	-76	23	31
65	48	-73	21	31
62	50	-70	20	31
59	52	-67	18	31
56	54	-64	17	31
54	56	-61	16	31
51	59	-58	14	31
48	61	-55	13	31
45	63	-52	11	31
42	65	-49	10	31
39	67	-46	8	31
36	70	-43	7	31
33	72	-40	6	31
30	74	-37	4	31
28	76	-34	3	31
25	78	-31	1	31
22	81	-28	0	31
19	83	-25	-2	31
16	85	-22	-3	31
13	87	-19	-4	31
10	89	-16	-6	31
7	92	-13	-7	31
5	94	-10	-9	31
2	96	-7	-10	31
-1	98	-4	-12	31
-4	100	-1	-13	31
-7	103	2	-15	31
-10	105	5	-16	31
-13	107	8	-17	31
-16	109	11	-19	31
-19	111	14	-20	31
-21	114	17	-22	31
-24	116	20	-23	31
-27	118	23	-25	31
-30	120	26	-26	31
-33	122	29	-27	31
-36	125	32	-29	31
-39	127	35	-30	31
-42	129	38	-32	31
-44	131	41	-33	31
-47	133	44	-35	31
-50	136	47	-36	31
-53	138	50	-37	31
-56	140	53	-39	31
-59	142	56	-40	31
-62	144	59	-42	31
-65	147	62	-43	31
-68	149	65	-45	31
-70	151	68	-46	31
-73	153	71	-47	31
-76	155	74	-49	31
-79	158	77	-50	31
-82	160	80	-52	31
-85	162	83	-53	31
-88	164	86	-55	31
-91	166	89	-56	31
-94	169	93	-58	31
-93	270	199	98	31
-64	227	166	83	31
-9	-32	70	115	31
70	-189	-149	98	31
116	-25	-188	119	31
-27	58	-81	218	31
-245	80	179	191	31
-237	166	345	43	31
-125	122	280	302	31
-46	-92	32	367	31
180	-237	-304	9	31
311	-184	-409	-292	31
176	-164	-280	-492	31
-8	-90	-21	-459	31
-21	-18	133	-519	31
-2	1	163	-363	31
-22	116	32	145	31
-1	165	-67	234	31
-38	195	27	188	31
-68	158	215	226	31
-110	153	383	-103	31
-115	217	186	-564	31
-62	64	-188	-365	31
6	-120	-451	-1	31
70	-181	-383	-50	31
99	-246	-57	84	31
37	-222	29	173	31
-31	-64	14	159	31
60	-64	50	291	31
16	-109	-74	341	31
-34	-66	-73	199	31
16	-27	167	104	31
-59	53	234	-121	31
-32	58	163	-117	31
25	-42	79	82	31
36	-131	4	69	31
39	-2	93	42	31
7	81	218	-54	31
-41	53	161	156	31
-41	53	161	156	31
-38	47	161	156	31
-35	40	161	156	31
-31	34	161	156	31
-28	27	161	156	31
-24	20	161	156	31
-21	14	161	157	31
-17	7	161	157	31
-14	1	161	157	31
-11	-6	161	157	31
-7	-13	162	157	31
-4	-19	162	158	31
0	-26	162	158	31
3	-32	162	158	31
7	-39	162	158	31
10	-46	162	158	31
13	-52	162	159	31
17	-59	162	159	31
20	-65	162	159	31
24	-72	163	159	31
27	-79	163	159	31
31	-85	163	160	31
34	-92	163	160	31
37	-98	163	160	31
41	-105	163	160	31
44	-112	163	160	31
48	-118	163	160	31
51	-125	163	161	31
55	-132	164	161	31
58	-138	164	161	31
62	-145	164	161	31
65	-151	164	161	31
68	-158	164	162	31
72	-165	164	162	31
75	-171	164	162	31
79	-178	164	162	31
82	-184	164	162	31
86	-191	165	163	31
89	-198	165	163	31
92	-204	165	163	31
96	-211	165	163	31
99	-217	165	163	31
103	-224	165	164	31
106	-231	165	164	31
110	-237	165	164	31
113	-244	165	164	31
116	-250	165	164	31
120	-257	166	165	31
123	-264	166	165	31
127	-270	166	165	31
130	-277	166	165	31
134	-284	166	165	31
137	-290	166	165	31
140	-297	166	166	31
144	-303	166	166	31
147	-310	166	166	31
151	-317	167	166	31
154	-323	167	166	31
158	-330	167	167	31
161	-336	167	167	31
165	-343	167	167	31
168	-350	167	167	31
171	-356	167	167	31
175	-363	167	168	31
178	-369	167	168	31
182	-376	168	168	31
185	-383	168	168	31
189	-389	168	168	31
192	-396	168	169	31
195	-402	168	169	31
199	-409	168	169	31
202	-416	168	169	31
206	-422	168	169	31
209	-429	168	169	31
213	-436	169	170	31
216	-442	169	170	31
219	-449	169	170	31
223	-455	169	170	31
226	-462	169	170	31
230	-469	169	171	31
233	-475	169	171	31
237	-482	169	171	31
240	-488	169	171	31
243	-495	169	171	31
247	-502	170	172	31
250	-508	170	172	31
254	-515	170	172	31
257	-521	170	172	31
261	-528	170	172	31
264	-535	170	173	31
268	-541	170	173	31
271	-548	170	173	31
274	-554	170	173	31
278	-561	171	173	31
281	-568	171	174	31
285	-574	171	174	31
288	-581	171	174	31
292	-588	171	174	31
295	-594	171	174	31
298	-601	171	174	31
302	-607	171	175	31
305	-614	171	175	31
309	-621	172	175	31
312	-627	172	175	31
316	-634	172	175	31
319	-640	172	176	31
322	-647	172	176	31
326	-654	172	176	31
329	-660	172	176	31
333	-667	172	176	31
336	-673	172	177	31
340	-680	173	177	31
343	-687	173	177	31
346	-693	173	177	31
350	-700	173	177	31
353	-706	173	178	31
357	-713	173	178	31
360	-720	173	178	31
364	-726	173	178	31
367	-733	173	178	31
371	-740	174	179	31
225	183	251	-63	31
63	917	504	-373	31
-108	1410	770	-494	31
-463	2029	636	-492	31
-629	1754	245	-289	31
-617	409	-172	-62	31
-301	-1805	-398	59	31
343	-2282	-331	88	31
532	-1210	-320	121	31
215	-201	-179	110	31
148	-322	165	166	31
285	-1645	165	390	31
454	-1615	-56	348	31
537	116	-134	264	31
89	1251	-363	156	31
-160	1657	-341	-44	31
135	660	126	-230	31
172	-193	471	47	31
-61	715	449	485	31
-305	1477	-47	102	31
-451	194	-405	-314	31
-314	-1322	-74	-260	31
102	-1768	176	72	31
298	-727	287	-4	31
211	700	552	-294	31
61	667	452	-360	31
-101	986	297	-502	31
-90	629	-180	-811	31
-149	6	-778	-590	31
-260	270	-865	487	31
-312	809	-534	460	31
-383	1769	-7	49	31
-278	884	272	-33	31
26	-1246	311	42	31
449	-1969	525	477	31
643	-668	803	865	31
314	577	416	737	31
-161	-14	50	-375	31
-439	-958	-573	-691	31
-312	-1183	-1267	-236	31
-95	-714	-1104	-241	31
-37	-705	-782	-578	31
136	-975	-153	-406	31
302	-348	298	-67	31
364	237	354	-57	31
330	290	636	143	31
271	213	1201	330	31
338	355	1635	355	31
137	575	1068	626	31
-233	384	-335	1178	31
-329	34	-1604	1180	31
-422	44	-2138	477	31
-509	642	-1427	-850	31
-553	1314	223	-1997	31
-503	1261	1176	-1552	31
-185	-17	1249	16	31
118	-874	1487	407	31
224	578	1694	26	31
264	1020	1017	-26	31
264	1020	1017	-26	31
264	1015	1010	-28	31
264	1010	1002	-31	31
264	1005	994	-34	31
264	1000	986	-37	31
264	995	978	-40	31
263	990	970	-42	31
263	985	963	-45	31
263	980	955	-48	31
263	975	947	-51	31
263	970	939	-54	31
262	965	931	-57	31
262	960	923	-59	31
262	955	915	-62	31
262	950	908	-65	31
262	944	900	-68	31
262	939	892	-71	31
261	934	884	-74	31
261	929	876	-76	31
261	924	868	-79	31
261	919	860	-82	31
261	914	853	-85	31
260	909	845	-88	31
260	904	837	-91	31
260	899	829	-93	31
260	894	821	-96	31
260	889	813	-99	31
260	884	806	-102	31
259	879	798	-105	31
259	874	790	-108	31
259	868	782	-110	31
259	863	774	-113	31
259	858	766	-116	31
258	853	758	-119	31
258	848	751	-122	31
258	843	743	-124	31
258	838	735	-127	31
258	833	727	-130	31
258	828	719	-133	31
257	823	711	-136	31
257	818	703	-139	31
257	813	696	-141	31
257	808	688	-144	31
257	803	680	-147	31
256	798	672	-150	31
256	792	664	-153	31
256	787	656	-156	31
256	782	649	-158	31
256	777	641	-161	31
256	772	633	-164	31
255	767	625	-167	31
255	762	617	-170	31
255	757	609	-173	31
255	752	601	-175	31
255	747	594	-178	31
254	742	586	-181	31
254	737	578	-184	31
254	732	570	-187	31
254	727	562	-190	31
254	722	554	-192	31
253	716	546	-195	31
253	711	539	-198	31
253	706	531	-201	31
253	701	523	-204	31
253	696	515	-206	31
253	691	507	-209	31
252	686	499	-212	31
252	681	492	-215	31
252	676	484	-218	31
252	671	476	-221	31
252	666	468	-223	31
251	661	460	-226	31
251	656	452	-229	31
251	651	444	-232	31
251	646	437	-235	31
251	640	429	-238	31
251	635	421	-240	31
250	630	413	-243	31
250	625	405	-246	31
250	620	397	-249	31
250	615	389	-252	31
250	610	382	-255	31
249	605	374	-257	31
249	600	366	-260	31
249	595	358	-263	31
249	590	350	-266	31
249	585	342	-269	31
249	580	335	-272	31
248	575	327	-274	31
248	570	319	-277	31
248	564	311	-280	31
248	559	303	-283	31
248	554	295	-286	31
247	549	287	-288	31
247	544	280	-291	31
247	539	272	-294	31
247	534	264	-297	31
247	529	256	-300	31
247	524	248	-303	31
246	519	240	-305	31
246	514	232	-308	31
246	509	225	-311	31
246	504	217	-314	31
246	499	209	-317	31
245	494	201	-320	31
245	488	193	-322	31
245	483	185	-325	31
245	478	178	-328	31
245	473	170	-331	31
245	468	162	-334	31
244	463	154	-337	31
244	458	146	-339	31
244	453	138	-342	31
244	448	130	-345	31
244	443	123	-348	31
243	438	115	-351	31
243	433	107	-354	31
243	428	99	-356	31
243	423	91	-359	31
243	418	83	-362	31
242	412	75	-365	31
242	407	68	-368	31
242	402	60	-370	31
242	397	52	-373	31
242	392	44	-376	31
242	387	36	-379	31
241	382	28	-382	31
241	377	21	-385	31
241	372	13	-387	31
241	367	5	-390	31
241	362	-3	-393	31
240	357	-11	-396	31
240	352	-19	-399	31
240	347	-27	-402	31
240	342	-34	-404	31
240	336	-42	-407	31
240	331	-50	-410	31
239	326	-58	-413	31
239	321	-66	-416	31
239	316	-74	-419	31
239	311	-82	-421	31
239	306	-89	-424	31
238	301	-97	-427	31
238	296	-105	-430	31
238	291	-113	-433	31
238	286	-121	-436	31
238	281	-129	-438	31
238	276	-136	-441	31
237	271	-144	-444	31
237	266	-152	-447	31
237	260	-160	-450	31
237	255	-168	-452	31
237	250	-176	-455	31
236	245	-184	-458	31
236	240	-191	-461	31
236	235	-199	-464	31
236	230	-207	-467	31
236	225	-215	-469	31
236	220	-223	-472	31
235	215	-231	-475	31
235	210	-239	-478	31
235	205	-246	-481	31
235	200	-254	-484	31
235	195	-262	-486	31
234	190	-270	-489	31
234	184	-278	-492	31
234	179	-286	-495	31
234	174	-293	-498	31
234	169	-301	-501	31
234	164	-309	-503	31
233	159	-317	-506	31
233	154	-325	-509	31
233	149	-333	-512	31
233	144	-341	-515	31
233	139	-348	-518	31
232	134	-356	-520	31
232	129	-364	-523	31
232	124	-372	-526	31
232	119	-380	-529	31
232	114	-388	-532	31
231	108	-396	-535	31
99	-100	-24	-729	31
-181	-112	375	-337	31
-410	-176	365	228	31
-359	-371	-106	621	31
-152	-381	-505	903	31
22	-340	-579	1218	31
105	-104	-326	916	31
52	37	19	-74	31
36	49	414	-1409	31
46	222	673	-1634	31
-17	532	686	-583	31
9	661	391	-46	31
60	336	261	-247	31
129	-188	146	-115	31
133	-376	33	68	31
95	-10	-98	41	31
12	162	-450	78	31
-161	-160	-406	-52	31
-143	-601	-141	295	31
26	-728	208	242	31
104	-330	373	81	31
66	54	298	190	31
-77	507	166	40	31
-140	650	-273	191	31
-117	192	-434	309	31
-75	-293	-265	54	31
80	-629	-312	-353	31
166	-397	-115	224	31
143	-68	-163	609	31
143	26	-320	-324	31
111	107	116	-713	31
64	19	259	-406	31
18	25	427	-52	31
5	82	589	176	31
-31	132	284	319	31
-14	246	208	830	31
32	364	323	618	31
4	316	471	67	31
49	81	787	-208	31
-47	-105	285	-592	31
-123	-308	-945	-458	31
-101	-368	-1291	-124	31
-135	-168	-896	-517	31
-63	70	-325	-691	31
5	313	112	24	31
37	474	123	319	31
42	399	-262	339	31
-23	42	-560	419	31
-72	-264	-256	583	31
30	-131	112	525	31
111	109	446	32	31
133	105	369	7	31
84	75	-3	-56	31
-67	-9	-61	139	31
-124	-119	-14	67	31
-133	-54	179	-530	31
-162	102	284	-704	31
-125	372	236	-843	31
22	565	-45	-165	31
-31	426	-97	218	31
16	16	120	60	31
69	-421	-58	475	31
-67	-688	-103	480	31
-6	-526	-86	67	31
-62	-291	-128	-182	31
-12	-313	175	-426	31
54	-211	312	-328	31
53	130	408	330	31
201	665	649	521	31
155	583	480	194	31
9	-238	31	2	31
-161	-859	-588	-186	31
-163	-840	-898	18	31
185	-348	-273	606	31
299	-128	307	703	31
66	-14	1	160	31
63	134	-448	-443	31
47	122	-409	-1002	31
13	181	-205	-827	31
-24	191	-54	-148	31
-115	295	179	70	31
-100	416	346	72	31
-108	430	272	-42	31
-26	429	108	271	31
-17	333	-42	411	31
53	255	-99	235	31
88	131	-19	159	31
-77	-75	-14	57	31
-116	-260	-16	-140	31
-116	-260	-16	-140	31
-113	-259	-18	-139	31
-109	-258	-21	-137	31
-105	-257	-24	-136	31
-101	-255	-27	-134	31
-97	-254	-30	-132	31
-93	-253	-33	-131	31
-89	-251	-36	-129	31
-85	-250	-39	-127	31
-81	-249	-42	-126	31
-77	-248	-45	-124	31
-73	-246	-48	-123	31
-69	-245	-51	-121	31
-65	-244	-54	-119	31
-61	-242	-57	-118	31
-57	-241	-60	-116	31
-53	-240	-63	-114	31
-49	-239	-66	-113	31
-45	-237	-69	-111	31
-41	-236	-72	-110	31
-37	-235	-75	-108	31
-33	-233	-78	-106	31
-29	-232	-81	-105	31
-25	-231	-84	-103	31
-22	-230	-87	-101	31
-18	-228	-90	-100	31
-14	-227	-93	-98	31
-10	-226	-96	-97	31
-6	-224	-99	-95	31
-2	-223	-102	-93	31
2	-222	-105	-92	31
6	-221	-108	-90	31
10	-219	-111	-88	31
14	-218	-114	-87	31
18	-217	-117	-85	31
22	-215	-120	-83	31
26	-214	-122	-82	31
30	-213	-125	-80	31
34	-212	-128	-79	31
38	-210	-131	-77	31
42	-209	-134	-75	31
46	-208	-137	-74	31
50	-206	-140	-72	31
54	-205	-143	-70	31
58	-204	-146	-69	31
62	-203	-149	-67	31
66	-201	-152	-66	31
69	-200	-155	-64	31
73	-199	-158	-62	31
77	-197	-161	-61	31
81	-196	-164	-59	31
85	-195	-167	-57	31
89	-194	-170	-56	31
93	-192	-173	-54	31
97	-191	-176	-53	31
101	-190	-179	-51	31
105	-188	-182	-49	31
109	-187	-185	-48	31
113	-186	-188	-46	31
117	-185	-191	-44	31
121	-183	-194	-43	31
125	-182	-197	-41	31
129	-181	-200	-40	31
133	-179	-203	-38	31
137	-178	-206	-36	31
141	-177	-209	-35	31
145	-176	-212	-33	31
149	-174	-215	-31	31
153	-173	-218	-30	31
157	-172	-221	-28	31
161	-170	-224	-26	31
99	55	17	-237	31
37	130	272	-46	31
33	160	237	199	31
-77	117	-279	238	31
-100	122	-746	194	31
-24	221	-704	224	31
68	408	-264	-16	31
9	488	154	-572	31
-66	384	201	-97	31
-59	201	74	100	31
-58	-74	87	20	31
5	-109	114	380	31
-24	-75	208	133	31
-36	-226	200	148	31
-6	-260	99	-61	31
5	-147	121	-337	31
6	-58	179	-368	31
-25	-50	251	-86	31
4	-100	166	29	31
40	-148	52	90	31
101	25	-27	474	31
96	187	-56	323	31
50	172	-128	186	31
3	171	-199	231	31
-78	55	-279	408	31
-88	-23	-322	308	31
-32	31	-30	-4	31
-15	50	175	-234	31
9	70	49	-247	31
55	130	-152	132	31
65	121	-52	81	31
110	51	223	117	31
58	42	502	-252	31
-46	-108	281	-320	31
-38	-304	-447	783	31
-22	-290	-484	559	31
-93	-205	-296	55	31
-75	-93	-140	50	31
28	60	343	-542	31
79	140	659	-1586	31
82	109	264	-1188	31
-50	32	-387	169	31
-77	-33	-259	-112	31
-11	-59	-42	-55	31
10	-62	32	111	31
74	91	122	204	31
127	334	122	171	31
80	365	267	-226	31
-70	273	247	-22	31
-89	49	193	-173	31
-125	-252	-50	45	31
-111	-323	-181	26	31
5	-352	92	-19	31
-14	-288	295	226	31
-37	3	-12	276	31
-72	173	-480	613	31
-75	134	-514	271	31
-62	36	-334	-201	31
-6	-118	-109	-153	31
1	-249	-101	-67	31
89	-263	19	84	31
150	-360	45	325	31
13	-312	-90	515	31
62	-90	-3	676	31
22	-82	153	909	31
56	54	510	423	31
149	204	874	-992	31
80	185	778	-1408	31
50	209	-297	-542	31
-52	154	-1248	-338	31
-57	126	-998	158	31
-41	117	-510	632	31
-70	153	-119	40	31
-69	324	135	-90	31
-57	448	363	-153	31
5	444	542	330	31
75	315	297	1035	31
100	26	284	531	31
74	-272	452	-178	31
-44	-416	490	-727	31
-142	-490	534	-438	31
-62	-427	55	-748	31
-36	-288	-568	-1152	31
-39	-42	-889	-229	31
-65	240	-1005	-353	31
-59	303	-642	-14	31
-53	264	-123	312	31
-92	117	53	-296	31
-87	-9	-82	12	31
-46	-100	19	701	31
176	-161	111	916	31
221	-141	88	583	31
70	-204	111	283	31
-41	-189	300	-297	31
-112	-236	634	-438	31
-39	-194	748	75	31
69	77	540	327	31
62	216	-229	979	31
31	295	-443	859	31
1	207	-133	-292	31
-75	-4	-155	-1068	31
-64	-170	331	-1865	31
-41	-217	524	-1605	31
2	-74	-285	85	31
55	131	-697	1190	31
78	281	-481	714	31
90	242	-301	613	31
-12	138	-84	1068	31
-138	-122	48	540	31
-63	-331	64	158	31
105	-188	37	-323	31
31	-84	167	-762	31
25	8	423	-403	31
4	26	290	33	31
-67	-72	217	-4	31
29	-13	363	-304	31
18	42	355	-121	31
16	30	92	287	31
-12	31	-151	143	31
48	29	-163	292	31
77	19	-80	576	31
-27	32	-25	148	31
-40	54	-244	-605	31
-71	66	-237	-763	31
-37	95	6	428	31
-63	131	332	552	31
-105	141	487	181	31
-50	76	128	194	31
53	-41	-416	-577	31
113	-112	-877	-977	31
45	-64	-469	-443	31
76	27	-151	315	31
46	40	-117	-113	31
-21	102	295	-173	31
43	287	481	8	31
122	436	378	-44	31
120	366	5	491	31
-33	118	-216	545	31
-112	-275	-170	436	31
-113	-587	127	-47	31
-102	-473	34	-440	31
-79	-332	-845	-34	31
-46	-277	-1304	87	31
-16	-130	-672	151	31
-53	-49	219	-192	31
-23	32	576	-475	31
65	42	628	454	31
62	13	671	410	31
17	29	617	-194	31
104	39	613	-247	31
82	73	615	-305	31
-27	59	363	-64	31
-26	28	16	234	31
-52	30	-183	-62	31
-32	65	-438	-240	31
8	106	-462	197	31
5	107	-304	-1	31
-60	72	-446	-398	31
-59	29	-296	-208	31
9	34	-14	39	31
-14	39	-45	-120	31
-17	38	7	-311	31
43	98	91	-151	31
76	208	92	125	31
20	221	320	213	31
-19	49	375	403	31
-55	-174	187	401	31
-64	-270	-46	74	31
-27	-131	-244	-19	31
-27	-131	-244	-19	31
-31	-124	-243	-13	31
-36	-117	-242	-6	31
-40	-110	-241	1	31
-45	-103	-239	8	31
-49	-96	-238	15	31
-54	-89	-237	22	31
-58	-82	-235	29	31
-63	-75	-234	36	31
-68	-67	-233	43	31
-72	-60	-231	50	31
-77	-53	-230	57	31
-81	-46	-229	63	31
-86	-39	-227	70	31
-90	-32	-226	77	31
-95	-25	-225	84	31
-99	-18	-223	91	31
-104	-11	-222	98	31
-109	-3	-221	105	31
-113	4	-219	112	31
-118	11	-218	119	31
-122	18	-217	126	31
-127	25	-215	133	31
-131	32	-214	140	31
-136	39	-213	146	31
-140	46	-211	153	31
-145	53	-210	160	31
-150	61	-209	167	31
-154	68	-207	174	31
-159	75	-206	181	31
-163	82	-205	188	31
-168	89	-203	195	31
-172	96	-202	202	31
-177	103	-201	209	31
-181	110	-199	216	31
-186	118	-198	223	31
-191	125	-197	229	31
-195	132	-195	236	31
-200	139	-194	243	31
-204	146	-193	250	31
-209	153	-191	257	31
-213	160	-190	264	31
-218	167	-189	271	31
-222	174	-187	278	31
-227	182	-186	285	31
-232	189	-185	292	31
-236	196	-183	299	31
-241	203	-182	305	31
-245	210	-181	312	31
-250	217	-179	319	31
-254	224	-178	326	31
-259	231	-177	333	31
-263	238	-175	340	31
-268	246	-174	347	31
-273	253	-173	354	31
-277	260	-171	361	31
-282	267	-170	368	31
-286	274	-169	375	31
-291	281	-167	382	31
-295	288	-166	388	31
-300	295	-165	395	31
-304	302	-163	402	31
-309	310	-162	409	31
-314	317	-161	416	31
-318	324	-159	423	31
-323	331	-158	430	31
-327	338	-157	437	31
-332	345	-155	444	31
-336	352	-154	451	31
-341	359	-153	458	31
-346	367	-151	465	31
-507	405	168	-210	31
-408	325	510	-335	31
-197	64	658	-290	31
-72	-336	648	-641	31
364	-707	444	-717	31
899	-551	416	-463	31
534	-234	435	-345	31
-30	7	223	-137	31
-128	294	-201	-24	31
-306	456	-806	47	31
-200	396	-755	339	31
-41	-49	-300	263	31
261	-285	-75	-102	31
446	-96	119	-114	31
123	-84	257	166	31
-89	-108	261	340	31
-233	-84	175	-169	31
-136	74	-47	-413	31
-115	461	-173	-37	31
-132	532	-53	41	31
1	116	142	-76	31
-18	-410	397	-23	31
-101	-563	373	75	31
-247	-434	-37	4	31
-376	-132	-435	170	31
-540	228	-735	231	31
-390	313	-547	226	31
-113	241	103	477	31
80	-74	390	180	31
534	-345	264	-247	31
1010	-325	157	-99	31
743	-134	-80	110	31
233	-82	-203	110	31
259	-156	115	210	31
72	33	283	208	31
-36	60	215	35	31
-93	126	59	-120	31
-209	246	-377	-111	31
-233	240	-765	88	31
-312	227	-505	35	31
-208	6	-94	-308	31
-135	-93	-31	-666	31
-25	-14	371	-478	31
-78	284	795	289	31
-135	517	648	635	31
-99	434	232	485	31
-113	184	-424	290	31
-12	-315	-1018	-434	31
77	-437	-552	-914	31
127	-204	279	-184	31
41	-223	113	296	31
23	-171	-96	-117	31
132	-17	29	-420	31
90	112	-16	-319	31
-106	383	284	412	31
-207	444	414	640	31
-342	221	194	405	31
-523	-112	32	242	31
-256	-217	-177	-26	31
201	169	90	-391	31
166	367	580	-987	31
-50	52	487	-334	31
112	-199	106	375	31
179	-60	-36	306	31
95	-152	223	38	31
50	-361	206	358	31
-37	-412	-99	827	31
-203	-436	-214	360	31
-362	-112	-573	1003	31
69	-82	-568	447	31
434	-29	-209	-1887	31
357	161	-729	-1413	31
484	-39	-1017	-1262	31
249	-92	-274	-1800	31
-29	-179	258	-165	31
58	-223	373	289	31
-117	-128	378	428	31
-145	-31	361	456	31
-7	103	185	11	31
150	106	-44	943	31
224	137	-111	1344	31
-89	449	42	1015	31
-464	913	279	572	31
-649	890	554	-824	31
-530	354	532	-1148	31
-203	-348	-17	191	31
247	-1142	-443	459	31
765	-1094	-625	496	31
798	-297	-409	300	31
156	188	73	-630	31
-153	547	155	91	31
-105	473	324	469	31
-245	27	701	-156	31
-72	-404	610	-187	31
240	-508	404	-334	31
95	-108	543	-972	31
-87	-253	623	-764	31
-14	-75	196	23	31
-93	306	-223	387	31
12	336	-433	806	31
11	609	-848	721	31
-141	327	-818	644	31
-89	10	-737	-32	31
-221	-208	-1134	-686	31
-201	-84	-610	-199	31
-103	106	96	-222	31
10	-223	199	318	31
271	-247	582	493	31
174	-201	1323	-473	31
-90	-2	1663	-226	31
-73	127	351	-267	31
-101	68	-851	-546	31
-360	6	-1221	436	31
-326	-41	-1498	860	31
-70	269	-628	534	31
27	361	-246	378	31
608	154	-445	407	31
760	-322	5	668	31
135	-619	354	269	31
189	-209	552	-790	31
119	-19	404	-2088	31
-34	-11	163	-1454	31
34	63	143	175	31
-94	-7	274	-193	31
-72	19	269	-332	31
-128	60	322	108	31
-93	97	485	219	31
-82	145	572	229	31
-141	145	864	209	31
-150	127	475	266	31
-145	88	-317	224	31
-69	22	-791	254	31
-55	75	-817	199	31
1	159	-436	239	31
1	47	-239	415	31
-21	-48	-131	239	31
-14	-97	107	386	31
-11	-127	293	910	31
-92	26	178	918	31
-327	232	-146	-79	31
-509	354	-144	-1761	31
-578	297	348	-1399	31
-345	-60	476	-22	31
333	-383	12	-102	31
861	-338	-276	469	31
667	-293	-428	997	31
423	-236	-332	-205	31
312	-55	92	-526	31
46	-27	102	294	31
46	-27	102	294	31
47	-25	100	289	31
48	-23	97	284	31
49	-20	95	279	31
50	-18	92	274	31
52	-15	89	269	31
53	-13	87	264	31
54	-11	84	259	31
55	-8	82	254	31
56	-6	79	249	31
58	-3	76	244	31
59	-1	74	239	31
60	2	71	234	31
61	4	68	229	31
62	6	66	224	31
64	9	63	219	31
65	11	61	214	31
66	14	58	209	31
67	16	55	204	31
68	18	53	199	31
70	21	50	193	31
71	23	48	188	31
72	26	45	183	31
73	28	42	178	31
74	31	40	173	31
76	33	37	168	31
77	35	34	163	31
78	38	32	158	31
79	40	29	153	31
80	43	27	148	31
82	45	24	143	31
83	47	21	138	31
84	50	19	133	31
85	52	16	128	31
86	55	14	123	31
88	57	11	118	31
89	60	8	113	31
90	62	6	108	31
91	64	3	103	31
92	67	0	98	31
94	69	-2	92	31
95	72	-5	87	31
96	74	-7	82	31
97	76	-10	77	31
98	79	-13	72	31
100	81	-15	67	31
101	84	-18	62	31
102	86	-20	57	31
103	89	-23	52	31
104	91	-26	47	31
106	93	-28	42	31
107	96	-31	37	31
108	98	-34	32	31
109	101	-36	27	31
110	103	-39	22	31
112	105	-41	17	31
113	108	-44	12	31
114	110	-47	7	31
115	113	-49	2	31
116	115	-52	-3	31
118	118	-55	-9	31
32	51	-58	-32	31
-100	5	232	188	31
94	34	222	173	31
241	-47	-12	120	31
125	-208	-227	214	31
-46	-181	-344	-130	31
40	-130	-78	-281	31
147	-36	308	-54	31
77	201	558	68	31
-83	560	600	138	31
-122	782	69	332	31
-105	535	-669	125	31
-115	-216	-993	-327	31
-11	-975	-560	-333	31
22	-806	44	-178	31
32	-312	148	-201	31
-14	-149	-107	104	31
-15	45	-312	304	31
27	50	-75	148	31
0	24	197	290	31
137	36	67	213	31
231	17	36	-201	31
87	110	211	-389	31
-14	144	122	-342	31
-77	114	-107	-273	31
-143	71	-196	-146	31
-90	145	-185	36	31
-163	151	80	94	31
-219	100	480	59	31
-166	232	567	170	31
-59	64	386	-9	31
165	-280	-186	-181	31
206	-454	-566	300	31
40	-297	-301	325	31
-112	-13	159	-9	31
-138	-92	361	0	31
-67	-173	75	-261	31
135	-67	-229	-387	31
281	43	-158	-315	31
281	43	-158	-315	31
272	43	-151	-307	31
262	43	-144	-299	31
252	44	-137	-291	31
243	44	-130	-283	31
233	45	-123	-275	31
223	45	-116	-266	31
214	46	-108	-258	31
204	46	-101	-250	31
194	47	-94	-242	31
185	47	-87	-234	31
175	48	-80	-225	31
165	48	-73	-217	31
156	48	-66	-209	31
146	49	-58	-201	31
136	49	-51	-193	31
127	50	-44	-185	31
117	50	-37	-176	31
107	51	-30	-168	31
97	51	-23	-160	31
88	52	-16	-152	31
78	52	-8	-144	31
68	53	-1	-135	31
59	53	6	-127	31
49	53	13	-119	31
39	54	20	-111	31
30	54	27	-103	31
20	55	34	-94	31
10	55	42	-86	31
1	56	49	-78	31
-9	56	56	-70	31
-19	57	63	-62	31
-28	57	70	-54	31
-38	58	77	-45	31
-48	58	84	-37	31
-58	59	92	-29	31
-67	59	99	-21	31
-77	59	106	-13	31
-87	60	113	-4	31
-96	60	120	4	31
-106	61	127	12	31
-116	61	134	20	31
-125	62	142	28	31
-135	62	149	36	31
-145	63	156	45	31
-154	63	163	53	31
-164	64	170	61	31
-174	64	177	69	31
-183	64	184	77	31
-193	65	192	86	31
-203	65	199	94	31
-212	66	206	102	31
-222	66	213	110	31
-232	67	220	118	31
-242	67	227	127	31
-251	68	234	135	31
-261	68	242	143	31
-271	69	249	151	31
-280	69	256	159	31
-290	69	263	167	31
-300	70	270	176	31
-309	70	277	184	31
-319	71	284	192	31
-329	71	292	200	31
-338	72	299	208	31
-348	72	306	217	31
-358	73	313	225	31
-367	73	320	233	31
-377	74	327	241	31
-387	74	334	249	31
-397	75	342	258	31
-340	-92	215	132	31
-171	-212	-11	-73	31
130	-201	-192	-130	31
552	46	-157	-18	31
438	45	-141	16	31
142	85	-132	-181	31
353	196	-221	-160	31
130	188	-263	-187	31
-83	265	8	-33	31
27	217	117	-142	31
-73	117	83	16	31
4	1	1	359	31
10	24	-89	460	31
-79	280	-39	506	31
-190	379	-29	-378	31
-247	276	136	-700	31
-187	-147	176	-45	31
-115	-790	107	188	31
27	-840	97	123	31
11	-343	60	141	31
-32	-154	-50	39	31
-13	-19	-187	-20	31
-64	115	-57	103	31
-125	55	260	75	31
-92	146	610	31	31
88	172	501	-236	31
135	198	26	-386	31
65	203	-306	-143	31
75	115	-390	-39	31
-33	-10	-295	-5	31
-148	-176	-70	-62	31
-128	-163	141	319	31
-159	-101	54	580	31
-135	-63	-192	239	31
19	7	-348	60	31
34	118	-74	-80	31
33	116	171	111	31
89	22	72	150	31
45	-43	-195	-166	31
152	-76	-449	-68	31
149	-47	-310	-115	31
87	-59	-55	-41	31
170	-40	0	138	31
-30	-17	69	-87	31
-60	-12	169	-154	31
-46	10	168	-192	31
-133	22	188	-213	31
-37	82	154	-35	31
-60	105	87	60	31
-9	86	-29	26	31
50	50	-42	17	31
50	-16	35	-8	31
1	-57	-2	-11	31
-97	-50	47	-138	31
-103	-17	148	-143	31
-121	6	206	95	31
16	41	176	199	31
240	49	1	269	31
171	36	-149	47	31
13	39	-149	-29	31
20	45	-44	33	31
-60	52	1	-120	31
-79	47	14	-123	31
-11	24	208	-139	31
-1	12	286	31	31
85	49	81	256	31
153	70	-278	236	31
87	52	-525	204	31
-43	30	-275	135	31
-74	-17	122	-14	31
-119	-23	234	-97	31
-128	12	218	-105	31
62	67	129	-4	31
130	140	-41	-286	31
47	128	-123	-229	31
69	57	-115	347	31
3	-21	-121	160	31
-39	-136	-149	129	31
-82	-251	-145	122	31
-218	-289	-100	-192	31
-156	-250	-9	-502	31
-72	-183	-80	-696	31
-34	-113	-138	-310	31
-26	-57	265	166	31
-5	7	530	641	31
15	65	377	645	31
-30	86	-9	-13	31
-25	52	-378	-375	31
4	-32	-151	-89	31
74	-57	124	-29	31
160	-4	120	-78	31
150	17	29	-4	31
46	19	-153	-218	31
14	27	-74	-258	31
22	23	-7	-133	31
-1	27	16	112	31
-7	28	68	372	31
-9	44	16	62	31
7	62	41	-72	31
6	79	50	90	31
-7	97	148	26	31
-20	110	83	149	31
2	110	-95	68	31
4	51	-253	27	31
10	-14	-307	42	31
85	-50	-85	-36	31
28	-36	-19	160	31
-70	57	-37	148	31
-71	93	42	-41	31
-112	71	54	223	31
-107	59	0	262	31
-75	17	40	34	31
-32	-19	60	119	31
67	-90	123	-175	31
53	-183	278	-506	31
21	-203	644	-398	31
74	-194	820	-168	31
37	-165	187	-55	31
-14	-136	-461	-84	31
-20	-105	-1061	-55	31
-35	-53	-1101	61	31
-33	-29	-295	-153	31
-30	17	22	-310	31
7	62	256	-86	31
-7	78	373	82	31
-52	110	63	210	31
-29	154	-64	295	31
33	176	-111	140	31
87	156	-12	14	31
62	111	-100	89	31
-11	28	-285	-125	31
-88	-42	-45	-39	31
-65	-73	332	248	31
85	-62	659	452	31
61	-53	638	399	31
-77	-84	216	-311	31
-29	-71	-145	-163	31
15	-28	-404	305	31
36	12	-434	-109	31
34	34	-229	-147	31
12	40	-1	-143	31
59	80	84	-24	31
54	102	38	244	31
57	94	52	82	31
29	57	39	-36	31
-37	-16	31	-451	31
-59	-86	86	-348	31
-62	-116	47	39	31
-75	-122	-201	-36	31
-75	-122	-201	-36	31
-59	-120	-199	-35	31
-42	-117	-196	-34	31
-25	-114	-193	-32	31
-8	-111	-190	-31	31
9	-108	-187	-30	31
25	-105	-184	-28	31
42	-102	-181	-27	31
59	-100	-179	-26	31
76	-97	-176	-24	31
93	-94	-173	-23	31
109	-91	-170	-22	31
126	-88	-167	-20	31
143	-85	-164	-19	31
160	-82	-161	-18	31
177	-79	-158	-16	31
194	-77	-156	-15	31
210	-74	-153	-14	31
227	-71	-150	-12	31
244	-68	-147	-11	31
261	-65	-144	-10	31
278	-62	-141	-8	31
294	-59	-138	-7	31
311	-57	-136	-6	31
328	-54	-133	-4	31
345	-51	-130	-3	31
362	-48	-127	-2	31
379	-45	-124	0	31
395	-42	-121	1	31
412	-39	-118	2	31
429	-36	-115	4	31
446	-34	-113	5	31
463	-31	-110	6	31
479	-28	-107	8	31
496	-25	-104	9	31
513	-22	-101	10	31
530	-19	-98	12	31
547	-16	-95	13	31
564	-14	-93	14	31
580	-11	-90	16	31
597	-8	-87	17	31
614	-5	-84	18	31
631	-2	-81	20	31
648	1	-78	21	31
664	4	-75	22	31
681	7	-72	24	31
698	9	-70	25	31
715	12	-67	26	31
732	15	-64	28	31
749	18	-61	29	31
765	21	-58	30	31
782	24	-55	32	31
799	27	-52	33	31
816	29	-50	34	31
833	32	-47	36	31
849	35	-44	37	31
866	38	-41	38	31
883	41	-38	40	31
900	44	-35	41	31
917	47	-32	42	31
934	50	-29	44	31
672	-204	50	-188	31
86	-414	-29	-54	31
314	-270	-29	-294	31
305	-17	162	-592	31
91	282	141	-343	31
-28	467	153	95	31
-169	561	334	76	31
-85	334	535	41	31
-59	-202	183	53	31
12	-600	-251	-65	31
29	-611	-654	154	31
41	-308	-646	226	31
82	-259	-69	123	31
0	-392	181	-132	31
-17	-247	408	-173	31
-65	-55	545	-43	31
-102	-40	247	-7	31
-67	-10	-288	42	31
-73	-10	-786	173	31
-176	-91	-717	292	31
-199	-60	-304	350	31
-71	-6	-62	307	31
2	74	19	156	31
10	164	77	100	31
3	178	98	-342	31
-38	174	131	-861	31
-117	140	248	-640	31
-124	122	287	-223	31
-40	88	163	81	31
-17	64	-16	148	31
-6	92	97	185	31
24	79	291	292	31
9	50	245	72	31
23	52	154	-206	31
1	54	23	-208	31
-6	50	-121	178	31
14	56	-186	391	31
4	60	-79	440	31
44	77	94	342	31
49	95	100	232	31
8	128	-3	-37	31
-28	174	-188	-262	31
-24	200	-318	-82	31
10	196	-146	-373	31
26	133	113	-481	31
19	57	169	-314	31
-9	-41	105	-286	31
-27	-141	22	24	31
-29	-216	-22	163	31
-29	-216	-22	163	31
-29	-211	-22	165	31
-28	-206	-22	168	31
-27	-201	-22	170	31
-26	-196	-22	173	31
-25	-191	-22	176	31
-24	-186	-22	178	31
-23	-181	-22	181	31
-22	-176	-22	183	31
-21	-170	-22	186	31
-20	-165	-22	189	31
-19	-160	-22	191	31
-18	-155	-22	194	31
-17	-150	-22	197	31
-16	-145	-22	199	31
-15	-140	-22	202	31
-14	-135	-22	204	31
-13	-130	-22	207	31
-12	-124	-22	210	31
-11	-119	-22	212	31
-10	-114	-22	215	31
-9	-109	-22	217	31
-8	-104	-22	220	31
-7	-99	-22	223	31
-6	-94	-22	225	31
-5	-89	-22	228	31
-4	-83	-22	231	31
-3	-78	-22	233	31
-2	-73	-22	236	31
-1	-68	-22	238	31
0	-63	-22	241	31
1	-58	-22	244	31
2	-53	-22	246	31
3	-48	-22	249	31
4	-43	-22	251	31
5	-37	-22	254	31
6	-32	-22	257	31
7	-27	-22	259	31
8	-22	-22	262	31
9	-17	-22	265	31
10	-12	-22	267	31
11	-7	-22	270	31
12	-2	-22	272	31
13	4	-22	275	31
14	9	-22	278	31
15	14	-22	280	31
16	19	-22	283	31
17	24	-22	285	31
18	29	-22	288	31
19	34	-22	291	31
20	39	-22	293	31
21	44	-22	296	31
22	50	-22	299	31
23	55	-22	301	31
24	60	-22	304	31
25	65	-22	306	31
26	70	-22	309	31
27	75	-22	312	31
28	80	-22	314	31
29	85	-22	317	31
30	91	-22	320	31
42	148	-69	74	31
29	209	-62	239	31
-4	236	-235	398	31
-31	199	-257	462	31
-47	186	15	315	31
-59	128	213	-259	31
-55	-19	66	-434	31
-35	-154	40	-367	31
47	-262	67	-163	31
115	-107	285	84	31
110	565	628	264	31
-57	1171	702	305	31
-312	1361	788	-504	31
-431	963	198	-454	31
-293	-658	-640	-102	31
140	-2043	-695	-527	31
474	-1632	-495	-204	31
582	-816	-278	-297	31
518	-348	116	-79	31
518	-348	116	-79	31
514	-343	115	-78	31
509	-338	113	-76	31
504	-333	111	-75	31
499	-327	110	-73	31
494	-322	108	-71	31
489	-317	106	-70	31
484	-311	105	-68	31
479	-306	103	-67	31
475	-301	101	-65	31
470	-295	99	-63	31
465	-290	98	-62	31
460	-285	96	-60	31
455	-279	94	-58	31
450	-274	93	-57	31
445	-269	91	-55	31
440	-263	89	-54	31
436	-258	88	-52	31
431	-253	86	-50	31
426	-247	84	-49	31
421	-242	82	-47	31
416	-237	81	-46	31
411	-232	79	-44	31
406	-226	77	-42	31
401	-221	76	-41	31
397	-216	74	-39	31
392	-210	72	-37	31
387	-205	71	-36	31
382	-200	69	-34	31
377	-194	67	-33	31
372	-189	65	-31	31
367	-184	64	-29	31
362	-178	62	-28	31
358	-173	60	-26	31
353	-168	59	-25	31
348	-162	57	-23	31
343	-157	55	-21	31
338	-152	54	-20	31
333	-146	52	-18	31
328	-141	50	-16	31
323	-136	48	-15	31
319	-131	47	-13	31
314	-125	45	-12	31
309	-120	43	-10	31
304	-115	42	-8	31
299	-109	40	-7	31
294	-104	38	-5	31
289	-99	37	-4	31
284	-93	35	-2	31
280	-88	33	0	31
275	-83	31	1	31
270	-77	30	3	31
265	-72	28	5	31
260	-67	26	6	31
255	-61	25	8	31
250	-56	23	9	31
245	-51	21	11	31
241	-45	20	13	31
236	-40	18	14	31
231	-35	16	16	31
226	-29	14	18	31
221	-24	13	19	31
216	-19	11	21	31
211	-14	9	22	31
206	-8	8	24	31
202	-3	6	26	31
197	2	4	27	31
192	8	3	29	31
187	13	1	30	31
182	18	-1	32	31
177	24	-3	34	31
172	29	-4	35	31
167	34	-6	37	31
163	40	-8	39	31
158	45	-9	40	31
153	50	-11	42	31
148	56	-13	43	31
143	61	-14	45	31
138	66	-16	47	31
133	72	-18	48	31
128	77	-20	50	31
124	82	-21	51	31
119	87	-23	53	31
114	93	-25	55	31
109	98	-26	56	31
104	103	-28	58	31
99	109	-30	60	31
94	114	-31	61	31
89	119	-33	63	31
85	125	-35	64	31
80	130	-37	66	31
75	135	-38	68	31
70	141	-40	69	31
65	146	-42	71	31
60	151	-43	72	31
55	157	-45	74	31
50	162	-47	76	31
46	167	-48	77	31
41	173	-50	79	31
36	178	-52	81	31
31	183	-54	82	31
26	188	-55	84	31
21	194	-57	85	31
16	199	-59	87	31
11	204	-60	89	31
7	210	-62	90	31
2	215	-64	92	31
-3	220	-65	93	31
-8	226	-67	95	31
-13	231	-69	97	31
-18	236	-71	98	31
-23	242	-72	100	31
-28	247	-74	102	31
-32	252	-76	103	31
-37	258	-77	105	31
-42	263	-79	106	31
-47	268	-81	108	31
-52	274	-82	110	31
-57	279	-84	111	31
-62	284	-86	113	31
-67	290	-88	115	31
-121	399	-42	177	31
-67	346	27	188	31
-27	37	-8	127	31
-2	-62	-80	135	31
54	112	38	67	31
19	132	97	-136	31
-69	109	158	30	31
-35	-70	85	172	31
-14	-311	-118	378	31
-27	-363	-353	539	31
-14	-469	-400	242	31
-18	-356	-155	-367	31
-21	-61	-29	-823	31
-9	84	181	-593	31
112	151	481	-57	31
125	145	366	223	31
51	-18	178	284	31
54	-264	141	276	31
29	-110	-193	118	31
-22	81	-494	143	31
-62	19	-403	106	31
-50	82	-415	-94	31
-49	72	-89	-28	31
-35	86	279	-351	31
