File Name: not saved
Channel 1: 'EMG 1', 18138 values, raw ADC, no filters.
Channel 2: 'EMG 2', 18138 values, raw ADC, no filters.
Channel 3: 'EMG 3', 18138 values, raw ADC, no filters.
Channel 4: 'EMG 4', 18138 values, raw ADC, no filters.
Digitals combined (event=16, d=8, c=4, b=2, a=1): 18138 values, .

-4	-3	-27	-13	31
-4	-6	-106	-74	31
-7	-2	-94	-80	31
2	-1	-57	-23	31
2	0	-39	-17	31
-4	-2	-27	-16	31
-4	0	-24	-2	31
-9	-1	-21	-2	31
0	-1	-1	16	31
4	1	22	11	31
-1	-1	38	11	31
-6	-3	42	2	31
-7	-5	43	-3	31
-3	-4	45	10	31
-2	-2	37	15	31
-4	-4	25	7	31
-6	-2	24	4	31
-1	0	6	11	31
1	2	-11	10	31
-2	1	-21	15	31
-2	-1	-31	14	31
-6	-5	-29	12	31
-7	-7	-24	-4	31
-2	-2	-1	-48	31
5	-1	2	-52	31
4	1	-11	-9	31
4	4	7	-7	31
2	-1	19	-4	31
-1	-2	6	6	31
-2	-1	11	5	31
-4	-3	-2	9	31
-2	-1	-16	1	31
3	3	-13	10	31
5	5	-5	11	31
1	1	9	7	31
0	1	7	6	31
0	2	5	0	31
-3	-1	-17	-4	31
-7	-2	-27	-6	31
-4	-1	-12	4	31
-3	1	-10	-1	31
-6	-1	-8	-11	31
-7	-1	-8	-10	31
-2	-1	12	26	31
5	-1	28	54	31
7	-1	26	25	31
5	-1	7	2	31
-4	-3	-9	-8	31
-2	-2	-11	-12	31
-1	-3	-19	-1	31
-2	-1	-16	-1	31
-2	1	-11	4	31
-2	-1	-8	2	31
4	4	11	2	31
5	4	17	4	31
0	2	7	4	31
-1	2	1	4	31
-1	0	-3	-16	31
0	-1	3	-24	31
7	-1	38	-11	31
7	-1	112	-6	31
-1	1	171	-3	31
-4	1	86	12	31
-6	1	-52	20	31
-6	1	-141	22	31
-5	0	-179	29	31
-6	-2	-136	24	31
-8	-4	-72	-24	31
-1	-1	3	-59	31
9	1	43	-41	31
4	-2	34	-33	31
2	-2	4	-4	31
2	-1	-32	28	31
-1	-4	-54	34	31
-5	-6	-45	21	31
-6	-2	3	-9	31
2	1	47	-21	31
6	2	64	-2	31
4	1	81	26	31
2	-1	103	28	31
-1	-1	75	18	31
-9	-3	37	-26	31
-16	-8	12	-36	31
-14	-6	-55	-7	31
-14	-2	-92	-9	31
-14	-2	-86	2	31
-22	-1	-65	12	31
-31	-2	-34	13	31
-19	-4	-27	-1	31
12	-1	2	9	31
52	1	20	40	31
46	2	17	14	31
15	5	28	-32	31
18	6	50	-41	31
6	3	65	-26	31
1	5	41	-11	31
6	10	10	9	31
1	8	-21	9	31
7	4	-44	13	31
3	6	-41	20	31
-2	2	-14	17	31
-8	-1	-5	12	31
-17	-2	-2	-16	31
-16	-4	13	-18	31
-9	-1	9	-3	31
-7	1	7	2	31
-8	1	6	-1	31
-11	-1	0	2	31
-11	-2	1	4	31
-12	-1	-4	6	31
-14	-1	-13	9	31
-11	-6	-25	3	31
-7	-6	-12	1	31
-2	1	16	1	31
-4	-2	35	4	31
-6	-3	36	2	31
-4	-2	26	2	31
-4	-6	26	7	31
-1	-2	-4	2	31
-4	-2	-32	-14	31
-2	-4	-36	-8	31
-1	-1	-47	1	31
-1	1	-15	-9	31
2	1	17	-12	31
2	1	15	-10	31
2	1	6	-2	31
0	-4	-5	1	31
3	-2	2	1	31
3	-1	-7	2	31
-1	-5	-21	2	31
-1	-4	-26	-6	31
-3	-2	-27	-6	31
-2	-2	12	6	31
-4	-2	119	8	31
-3	-1	195	9	31
-4	-2	95	19	31
-4	-2	-37	8	31
-3	-2	-88	-19	31
-2	-2	-112	-34	31
-1	1	-100	-1	31
3	3	-70	20	31
4	1	-79	18	31
0	0	-93	50	31
4	1	-16	58	31
9	2	42	14	31
3	2	31	-53	31
2	0	16	-65	31
1	0	1	-71	31
2	2	6	-32	31
1	1	21	43	31
-8	-4	46	14	31
-3	-2	44	9	31
2	1	20	11	31
-3	-1	-10	12	31
-7	-1	-26	24	31
-11	-1	-29	10	31
-11	-3	-33	-4	31
-5	-2	-2	-21	31
5	1	14	4	31
3	1	4	11	31
-1	-1	-4	13	31
2	1	7	19	31
7	2	25	-11	31
7	2	14	-31	31
-5	2	4	-7	31
-9	-1	9	1	31
-6	-4	-2	-6	31
-4	1	-1	9	31
-3	0	11	0	31
-2	0	39	6	31
0	2	65	14	31
-1	2	46	1	31
7	5	31	9	31
10	5	9	25	31
2	2	-29	32	31
-6	2	-59	16	31
-9	1	-55	-3	31
-3	-1	-27	-18	31
-4	-2	-10	-11	31
-6	-4	4	-22	31
-6	-4	1	-40	31
-9	-4	-7	3	31
-1	-1	-27	72	31
1	-1	-41	95	31
-2	-1	-12	39	31
1	-1	12	-17	31
-6	-3	7	-99	31
-9	-3	-1	-156	31
4	2	14	-74	31
7	4	26	-34	31
7	2	36	-6	31
4	1	9	34	31
-1	-1	1	-20	31
2	-2	26	-27	31
-3	-6	19	14	31
-9	-6	-6	19	31
-12	-4	-42	23	31
-4	0	-48	32	31
2	1	-41	33	31
1	-1	-47	57	31
2	0	-52	100	31
-1	-2	-23	130	31
3	2	17	105	31
1	1	19	-2	31
0	-1	25	-37	31
1	0	11	52	31
-2	-3	-9	65	31
-1	-1	12	-4	31
-1	2	50	-131	31
1	6	60	-221	31
1	6	42	-128	31
-2	2	18	-77	31
-9	4	11	-59	31
-11	-4	38	-39	31
-7	-16	33	-41	31
-1	-11	3	-10	31
6	-2	-1	39	31
4	2	-8	42	31
-2	5	-14	45	31
-7	6	41	106	31
-6	1	65	116	31
-7	-1	-7	143	31
-8	1	-62	156	31
-8	-1	-151	146	31
-9	-6	-168	41	31
6	-1	-80	-49	31
11	2	-52	-17	31
7	-2	-47	-77	31
7	4	-34	-79	31
8	0	-12	-70	31
6	-4	27	-197	31
-6	-9	75	-197	31
-9	-12	92	5	31
-1	-6	92	58	31
-4	-12	57	-41	31
-8	-13	43	-204	31
-5	-9	53	-292	31
-12	-8	34	-87	31
-3	4	21	90	31
6	11	-30	164	31
0	1	-47	132	31
6	8	-19	97	31
7	19	14	111	31
4	4	12	59	31
11	-2	-33	26	31
11	0	-20	11	31
0	-3	18	30	31
-6	-4	0	45	31
-6	-11	-49	14	31
6	2	-16	-46	31
4	22	30	21	31
-6	17	24	53	31
2	9	-8	41	31
2	1	-54	70	31
1	12	-98	-67	31
-9	4	-84	-142	31
-11	-6	1	1	31
-1	-2	26	98	31
-4	-5	55	31	31
-7	2	86	-50	31
-14	-6	73	-142	31
-9	-5	60	-145	31
-6	-2	60	19	31
-4	-7	65	135	31
-1	-1	11	165	31
-3	-4	-71	153	31
-6	-3	-114	-20	31
-7	-11	-75	-261	31
4	-11	-65	-246	31
-1	-7	-55	-33	31
-6	-9	14	132	31
-8	-7	16	145	31
-7	2	15	64	31
5	6	11	175	31
2	-6	-36	257	31
9	6	-55	98	31
4	7	-45	-34	31
-9	-10	16	-132	31
9	-6	59	-150	31
14	3	12	-117	31
-7	11	-23	-145	31
-29	1	-1	26	31
-24	-5	35	176	31
-6	-1	46	87	31
15	-2	46	52	31
34	8	84	-14	31
12	6	82	-146	31
1	2	39	-252	31
-4	-2	-28	-153	31
-22	-3	-60	-3	31
-20	6	-67	38	31
-24	7	-107	59	31
-32	4	-47	-48	31
-60	-5	57	-51	31
-46	9	118	160	31
6	15	79	331	31
46	-2	-22	249	31
81	6	-135	242	31
55	-1	-252	325	31
34	8	-232	151	31
21	6	-141	-37	31
2	-24	10	-209	31
17	3	130	-261	31
12	8	160	-209	31
-12	-19	217	-529	31
-29	-22	227	-663	31
-19	-24	155	-207	31
-11	-13	42	-186	31
-14	-3	-8	-228	31
-12	14	-57	75	31
-16	14	-92	153	31
4	4	-22	246	31
11	8	67	199	31
-2	-6	91	209	31
-9	-7	27	313	31
-9	3	-72	283	31
-7	39	-145	210	31
-22	156	-108	137	31
-25	257	-64	233	31
-21	146	-39	295	31
-29	-64	-8	254	31
-33	-198	-21	120	31
-17	-222	32	-134	31
9	-136	15	-494	31
27	-89	25	-1060	31
18	-51	165	-887	31
4	-26	153	-113	31
16	-27	11	-56	31
16	-2	-81	-72	31
8	-5	-58	125	31
4	25	-40	398	31
2	56	-64	468	31
-1	60	-65	390	31
5	44	-110	555	31
-3	75	-115	518	31
-18	234	-37	365	31
-16	323	18	-112	31
-41	204	87	-565	31
-47	-60	207	-615	31
-15	-381	218	-430	31
31	-434	78	-259	31
57	-217	29	-294	31
21	-134	-10	25	31
-12	-65	-79	140	31
4	4	-44	112	31
7	2	-115	362	31
-11	24	-208	530	31
-9	22	-160	735	31
36	51	-124	698	31
78	53	-84	568	31
29	47	28	288	31
2	73	136	49	31
17	72	148	-287	31
-34	78	38	-863	31
-59	81	-137	-570	31
-77	62	-208	-201	31
-44	12	-49	-238	31
-8	-53	179	-552	31
0	-104	262	-1027	31
34	-42	400	-971	31
34	-42	400	-971	31
36	-42	393	-959	31
38	-42	386	-947	31
40	-42	379	-934	31
42	-42	372	-922	31
44	-42	365	-909	31
46	-42	358	-897	31
48	-41	351	-884	31
50	-41	344	-872	31
52	-41	337	-860	31
55	-41	330	-847	31
57	-41	323	-835	31
59	-41	316	-822	31
61	-41	309	-810	31
63	-40	301	-797	31
65	-40	294	-785	31
67	-40	287	-772	31
69	-40	280	-760	31
71	-40	273	-748	31
73	-40	266	-735	31
76	-40	259	-723	31
78	-39	252	-710	31
80	-39	245	-698	31
82	-39	238	-685	31
84	-39	231	-673	31
86	-39	224	-660	31
88	-39	217	-648	31
90	-39	210	-636	31
92	-38	202	-623	31
94	-38	195	-611	31
97	-38	188	-598	31
99	-38	181	-586	31
101	-38	174	-573	31
103	-38	167	-561	31
105	-38	160	-548	31
107	-37	153	-536	31
109	-37	146	-524	31
111	-37	139	-511	31
113	-37	132	-499	31
115	-37	125	-486	31
118	-37	118	-474	31
120	-37	111	-461	31
122	-36	103	-449	31
124	-36	96	-436	31
126	-36	89	-424	31
128	-36	82	-412	31
130	-36	75	-399	31
132	-36	68	-387	31
134	-36	61	-374	31
136	-35	54	-362	31
139	-35	47	-349	31
141	-35	40	-337	31
143	-35	33	-324	31
145	-35	26	-312	31
147	-35	19	-300	31
149	-35	12	-287	31
151	-34	4	-275	31
153	-34	-3	-262	31
155	-34	-10	-250	31
157	-34	-17	-237	31
160	-34	-24	-225	31
162	-34	-31	-212	31
164	-34	-38	-200	31
166	-33	-45	-188	31
168	-33	-52	-175	31
170	-33	-59	-163	31
172	-33	-66	-150	31
174	-33	-73	-138	31
176	-33	-80	-125	31
178	-33	-87	-113	31
181	-32	-95	-100	31
88	-67	-325	39	31
27	102	-324	168	31
17	151	-204	223	31
-5	222	-74	229	31
-33	336	-7	135	31
-90	179	45	-137	31
-146	-63	-68	-101	31
-113	-298	-93	209	31
-46	-206	-102	287	31
-21	254	-66	234	31
23	649	74	133	31
54	694	100	38	31
-49	146	113	261	31
-69	-636	4	108	31
35	-755	50	-2	31
102	-368	107	69	31
157	-162	19	60	31
97	92	-38	49	31
-3	294	58	-265	31
-81	199	218	-154	31
-113	-45	215	45	31
-57	-327	180	49	31
-33	-57	60	-150	31
-3	323	-87	-401	31
21	291	-125	-337	31
26	122	-32	-169	31
47	-217	217	103	31
128	-136	300	279	31
109	66	118	312	31
109	66	118	312	31
105	65	116	310	31
100	64	114	308	31
95	63	112	306	31
90	62	110	304	31
85	60	108	301	31
80	59	105	299	31
75	58	103	297	31
71	57	101	295	31
66	55	99	292	31
61	54	97	290	31
56	53	94	288	31
51	52	92	286	31
46	51	90	283	31
41	49	88	281	31
37	48	86	279	31
32	47	84	277	31
27	46	81	274	31
22	44	79	272	31
17	43	77	270	31
12	42	75	268	31
7	41	73	265	31
2	39	70	263	31
-2	38	68	261	31
-7	37	66	259	31
-12	36	64	256	31
-17	35	62	254	31
-22	33	60	252	31
-27	32	57	250	31
-32	31	55	247	31
-36	30	53	245	31
-41	28	51	243	31
-46	27	49	241	31
-51	26	46	238	31
-56	25	44	236	31
-61	24	42	234	31
-66	22	40	232	31
-70	21	38	229	31
-75	20	36	227	31
-80	19	33	225	31
-85	17	31	223	31
-90	16	29	220	31
-95	15	27	218	31
-100	14	25	216	31
-105	12	22	214	31
-109	11	20	211	31
-114	10	18	209	31
-119	9	16	207	31
-124	8	14	205	31
-129	6	12	202	31
-134	5	9	200	31
-139	4	7	198	31
-143	3	5	196	31
-148	1	3	193	31
-153	0	1	191	31
-158	-1	-2	189	31
-163	-2	-4	187	31
-168	-3	-6	185	31
-173	-5	-8	182	31
-177	-6	-10	180	31
-182	-7	-12	178	31
-187	-8	-15	176	31
-192	-10	-17	173	31
-197	-11	-19	171	31
-202	-12	-21	169	31
-207	-13	-23	167	31
-212	-15	-26	164	31
-216	-16	-28	162	31
-221	-17	-30	160	31
-226	-18	-32	158	31
-231	-19	-34	155	31
-236	-21	-36	153	31
-241	-22	-39	151	31
-246	-23	-41	149	31
-250	-24	-43	146	31
-255	-26	-45	144	31
-260	-27	-47	142	31
-265	-28	-50	140	31
-270	-29	-52	137	31
-275	-30	-54	135	31
-280	-32	-56	133	31
-284	-33	-58	131	31
-289	-34	-60	128	31
-294	-35	-63	126	31
-299	-37	-65	124	31
-304	-38	-67	122	31
-309	-39	-69	119	31
-314	-40	-71	117	31
-319	-42	-74	115	31
-323	-43	-76	113	31
-328	-44	-78	110	31
-333	-45	-80	108	31
-338	-46	-82	106	31
-343	-48	-84	104	31
-348	-49	-87	101	31
-353	-50	-89	99	31
-357	-51	-91	97	31
-362	-53	-93	95	31
-367	-54	-95	92	31
-372	-55	-98	90	31
-377	-56	-100	88	31
-382	-57	-102	86	31
-387	-59	-104	83	31
-391	-60	-106	81	31
-396	-61	-108	79	31
-401	-62	-111	77	31
-406	-64	-113	74	31
-411	-65	-115	72	31
-416	-66	-117	70	31
-421	-67	-119	68	31
-426	-69	-122	65	31
-25	-118	-114	35	31
344	-6	-34	21	31
554	41	2	8	31
456	12	-55	-160	31
100	29	-90	-216	31
-362	48	-127	-125	31
-608	93	-176	-54	31
-755	170	-120	-14	31
-671	182	17	-9	31
-166	65	141	17	31
218	-170	143	-4	31
618	-251	-9	-31	31
1011	-67	-144	12	31
665	-34	-125	125	31
258	-71	-52	137	31
141	-55	-11	15	31
105	-146	54	14	31
375	-92	84	19	31
80	-62	80	12	31
-186	-32	60	52	31
-43	107	30	34	31
-170	217	90	30	31
-139	163	150	1	31
-184	-111	203	-114	31
-193	-322	333	-139	31
-117	-229	249	-36	31
-117	62	20	21	31
8	75	-93	52	31
17	61	-253	11	31
17	61	-253	11	31
16	60	-246	9	31
15	59	-239	7	31
13	58	-232	5	31
12	57	-225	3	31
10	56	-218	1	31
9	55	-211	-1	31
7	54	-204	-3	31
6	53	-197	-5	31
5	52	-190	-8	31
3	51	-182	-10	31
2	50	-175	-12	31
0	49	-168	-14	31
-1	48	-161	-16	31
-3	47	-154	-18	31
-4	46	-147	-20	31
-5	45	-140	-22	31
-7	44	-133	-24	31
-8	43	-126	-27	31
-10	42	-119	-29	31
-11	41	-111	-31	31
-13	40	-104	-33	31
-14	39	-97	-35	31
-15	38	-90	-37	31
-17	37	-83	-39	31
-18	36	-76	-41	31
-20	35	-69	-44	31
-21	34	-62	-46	31
-23	33	-55	-48	31
-24	32	-48	-50	31
-26	31	-40	-52	31
-27	30	-33	-54	31
-28	29	-26	-56	31
-30	28	-19	-58	31
-31	27	-12	-60	31
-33	26	-5	-63	31
-34	25	2	-65	31
-36	24	9	-67	31
-37	23	16	-69	31
-38	22	23	-71	31
-40	21	31	-73	31
-41	20	38	-75	31
-43	19	45	-77	31
-44	18	52	-80	31
-46	17	59	-82	31
-47	16	66	-84	31
-48	15	73	-86	31
-50	14	80	-88	31
-51	13	87	-90	31
-53	12	94	-92	31
-54	11	102	-94	31
-56	10	109	-96	31
-57	9	116	-99	31
-58	8	123	-101	31
-60	7	130	-103	31
-61	6	137	-105	31
-63	5	144	-107	31
-64	4	151	-109	31
-66	3	158	-111	31
-67	2	165	-113	31
-69	1	173	-116	31
-69	14	87	-82	31
17	16	98	48	31
-20	32	50	74	31
-49	-10	80	-49	31
-108	-1	153	16	31
-92	-22	148	84	31
-125	-21	56	5	31
-107	-21	-132	-137	31
-100	-21	-199	-130	31
-110	-3	-132	-1	31
-102	-7	-40	60	31
-84	7	-42	165	31
-11	5	12	216	31
21	-2	-49	200	31
47	-16	-136	90	31
0	-5	11	31	31
-25	16	185	12	31
-53	25	226	-195	31
-122	65	152	-244	31
-122	65	152	-244	31
-122	67	151	-241	31
-121	69	150	-238	31
-120	72	148	-235	31
-120	74	147	-232	31
-119	76	146	-229	31
-118	79	144	-225	31
-117	81	143	-222	31
-117	84	141	-219	31
-116	86	140	-216	31
-115	88	139	-213	31
-114	91	137	-210	31
-114	93	136	-206	31
-113	96	134	-203	31
-112	98	133	-200	31
-111	100	132	-197	31
-111	103	130	-194	31
-110	105	129	-191	31
-109	107	128	-187	31
-108	110	126	-184	31
-108	112	125	-181	31
-107	115	123	-178	31
-106	117	122	-175	31
-105	119	121	-172	31
-105	122	119	-168	31
-104	124	118	-165	31
-103	127	116	-162	31
-102	129	115	-159	31
-102	131	114	-156	31
-101	134	112	-153	31
-100	136	111	-149	31
-99	138	110	-146	31
-99	141	108	-143	31
-98	143	107	-140	31
-97	146	105	-137	31
-96	148	104	-133	31
-96	150	103	-130	31
-95	153	101	-127	31
-94	155	100	-124	31
-94	158	98	-121	31
-93	160	97	-118	31
-92	162	96	-114	31
-91	165	94	-111	31
-91	167	93	-108	31
-90	169	92	-105	31
-89	172	90	-102	31
-88	174	89	-99	31
-88	177	87	-95	31
-87	179	86	-92	31
-86	181	85	-89	31
-85	184	83	-86	31
-85	186	82	-83	31
-84	189	80	-80	31
-83	191	79	-76	31
-82	193	78	-73	31
-82	196	76	-70	31
-81	198	75	-67	31
-80	200	74	-64	31
-79	203	72	-61	31
-79	205	71	-57	31
-78	208	69	-54	31
-77	210	68	-51	31
-76	212	67	-48	31
-76	215	65	-45	31
-75	217	64	-42	31
-74	220	62	-38	31
-73	222	61	-35	31
-73	224	60	-32	31
-72	227	58	-29	31
-71	229	57	-26	31
-70	232	55	-22	31
-115	229	-118	41	31
-112	244	-222	215	31
-93	237	-291	347	31
-60	101	-170	259	31
-15	-37	-31	65	31
25	-27	-49	-65	31
44	34	-45	-111	31
37	61	-7	-168	31
19	109	31	-132	31
11	88	172	-79	31
1	81	229	-58	31
-12	78	189	-26	31
-17	55	161	-45	31
-37	118	-60	57	31
-39	165	-248	77	31
-29	184	-271	90	31
-12	99	-254	221	31
-24	-104	-97	160	31
-83	-9	19	146	31
-134	466	85	76	31
-203	645	92	-105	31
-229	330	-14	-204	31
-90	-193	-74	-268	31
121	-457	-58	-79	31
246	-585	14	2	31
311	-731	60	-36	31
315	-356	107	-39	31
203	-269	86	-100	31
75	-275	57	-36	31
15	-4	36	-6	31
-11	-80	-62	35	31
-40	22	-76	49	31
-74	40	-50	61	31
-118	37	-24	94	31
-132	84	45	14	31
17	88	114	-59	31
70	444	90	-42	31
-219	804	-2	-33	31
-387	1153	-46	-10	31
-353	1331	-65	84	31
-211	611	-84	94	31
90	-700	2	26	31
322	-1198	65	11	31
418	-1102	47	120	31
269	-1153	64	131	31
220	-925	36	-49	31
322	-293	-35	-133	31
106	152	-97	-72	31
-59	275	-98	82	31
-92	204	-69	54	31
-178	-103	-15	-107	31
-95	-77	69	-83	31
-36	-239	178	-126	31
-66	-44	239	-102	31
-122	684	160	21	31
-171	631	75	149	31
-108	540	-68	185	31
-43	55	-247	127	31
52	-820	-224	130	31
137	-468	-60	16	31
105	227	-22	-13	31
-4	88	-18	-52	31
-2	-22	14	-75	31
64	55	14	-67	31
-41	287	57	-62	31
-145	353	83	9	31
-160	159	111	-39	31
-74	-373	161	-4	31
136	-964	252	15	31
322	-383	272	1	31
216	-277	27	-59	31
23	-281	-282	-157	31
27	310	-392	-102	31
-47	568	-388	-31	31
-188	1143	-242	18	31
-411	1575	8	63	31
-499	1129	69	41	31
-244	32	33	-29	31
-14	69	38	-75	31
98	-260	82	-88	31
181	-285	253	-70	31
227	462	379	-46	31
310	-1628	223	65	31
528	-1993	-26	171	31
626	-729	-194	5	31
381	-461	-399	-105	31
106	56	-483	117	31
-13	64	-258	145	31
-193	163	-52	68	31
-320	452	4	88	31
-325	772	137	24	31
-480	1205	197	65	31
-511	875	206	48	31
-342	664	196	46	31
-207	523	73	63	31
-105	-48	-52	33	31
39	-389	-170	-10	31
227	-651	-129	-207	31
329	-1012	33	-208	31
411	-907	116	-72	31
426	-1060	56	-61	31
428	-765	22	-58	31
265	-91	50	-46	31
-16	-65	63	55	31
-62	90	43	79	31
-138	117	-32	107	31
-302	167	-59	216	31
-415	234	3	127	31
-274	180	94	-24	31
-55	204	41	-69	31
74	14	-58	-26	31
276	38	-17	-55	31
128	206	113	-43	31
-89	145	176	8	31
-102	95	214	0	31
-82	59	124	16	31
51	65	-219	-156	31
24	125	-460	-288	31
-73	70	-396	-90	31
-108	79	-119	84	31
-125	85	2	171	31
-57	40	-5	160	31
-71	-5	87	-10	31
-191	-62	130	-94	31
-5	61	153	-117	31
304	117	183	-75	31
97	47	123	-24	31
-84	52	-26	1	31
61	7	-52	-37	31
76	-23	29	-85	31
84	4	60	-21	31
46	32	78	26	31
-6	58	42	11	31
-22	31	-37	-50	31
-77	-11	-106	1	31
-57	-47	-152	132	31
-32	-35	-89	226	31
-11	-11	-77	239	31
-14	9	-111	162	31
-81	115	-112	77	31
-185	191	-159	80	31
-157	183	-61	9	31
-15	-75	50	-2	31
97	-345	35	27	31
134	-201	-11	-79	31
-28	-9	-6	-47	31
-275	259	37	-24	31
-334	456	29	-44	31
-223	398	82	-62	31
14	-24	133	-55	31
435	-674	121	-12	31
619	-497	93	-8	31
306	-41	71	3	31
-135	355	72	1	31
-222	637	62	-28	31
-83	200	55	-67	31
118	-422	42	-28	31
357	-525	4	13	31
241	-52	-29	31	31
-7	-348	21	19	31
-24	-669	60	-7	31
-75	-52	-13	-22	31
-282	209	-76	-105	31
-414	381	-112	-67	31
-413	422	-138	9	31
-151	82	18	15	31
331	-344	180	54	31
776	-692	118	136	31
676	-203	18	153	31
92	107	-109	79	31
-126	24	-184	-84	31
-122	196	-75	-270	31
-15	36	57	-275	31
84	50	-13	-217	31
-51	79	-148	-39	31
-64	52	-141	206	31
-101	170	-49	194	31
-102	111	20	41	31
-98	80	16	19	31
-178	87	44	8	31
-194	197	39	-24	31
-196	247	32	0	31
-213	171	55	72	31
-140	-62	-25	100	31
92	-249	-85	-39	31
172	-223	-41	-42	31
62	-158	37	-22	31
86	-50	91	-131	31
111	6	145	-169	31
-92	52	188	-117	31
-87	51	252	-10	31
52	38	340	192	31
67	27	295	341	31
143	56	122	190	31
98	150	-146	18	31
-55	137	-441	-31	31
-193	45	-562	131	31
-186	-42	-352	156	31
-57	-50	-83	17	31
45	-70	-41	34	31
-109	-143	-110	-1	31
-312	-84	-179	-85	31
-274	-15	-141	-181	31
-80	1	85	-34	31
242	239	305	32	31
223	477	240	-25	31
168	486	64	-70	31
272	236	-100	-224	31
227	-472	-168	-198	31
197	-780	-26	-117	31
165	-252	170	-70	31
54	-98	302	-25	31
-57	-75	188	20	31
-67	64	-78	-5	31
-87	-80	-202	-22	31
-85	-41	-195	-1	31
-105	28	-105	-6	31
-153	181	18	109	31
-204	264	98	187	31
-256	65	155	93	31
-127	-191	118	49	31
17	-179	44	69	31
122	2	-27	48	31
256	-2	-130	12	31
172	62	-110	-30	31
-130	44	-52	-44	31
-160	39	-31	-32	31
-138	135	-36	-29	31
-178	271	-45	-47	31
126	140	32	-34	31
237	-108	148	-35	31
9	111	208	-41	31
54	-63	193	-17	31
77	-60	137	-69	31
-74	411	42	-66	31
-109	201	-47	38	31
-75	-283	-120	-50	31
91	-651	-50	-62	31
118	-369	-47	116	31
118	-369	-47	116	31
116	-362	-47	114	31
113	-355	-47	111	31
110	-348	-47	108	31
107	-341	-47	105	31
104	-334	-47	102	31
101	-326	-47	99	31
98	-319	-47	96	31
96	-312	-47	93	31
93	-305	-47	90	31
90	-298	-47	87	31
87	-290	-47	84	31
84	-283	-47	81	31
81	-276	-47	78	31
78	-269	-47	75	31
75	-262	-47	72	31
73	-255	-47	70	31
70	-247	-47	67	31
67	-240	-47	64	31
64	-233	-47	61	31
61	-226	-48	58	31
58	-219	-48	55	31
55	-211	-48	52	31
53	-204	-48	49	31
50	-197	-48	46	31
47	-190	-48	43	31
44	-183	-48	40	31
41	-176	-48	37	31
38	-168	-48	34	31
35	-161	-48	31	31
32	-154	-48	28	31
30	-147	-48	26	31
27	-140	-48	23	31
24	-132	-48	20	31
21	-125	-48	17	31
18	-118	-48	14	31
15	-111	-48	11	31
12	-104	-48	8	31
10	-97	-48	5	31
7	-89	-48	2	31
4	-82	-49	-1	31
1	-75	-49	-4	31
-2	-68	-49	-7	31
-5	-61	-49	-10	31
-8	-53	-49	-13	31
-11	-46	-49	-16	31
-13	-39	-49	-18	31
-16	-32	-49	-21	31
-19	-25	-49	-24	31
-22	-18	-49	-27	31
-25	-10	-49	-30	31
-28	-3	-49	-33	31
-31	4	-49	-36	31
-33	11	-49	-39	31
-36	18	-49	-42	31
-39	26	-49	-45	31
-42	33	-49	-48	31
-45	40	-49	-51	31
-48	47	-49	-54	31
-51	54	-49	-57	31
-54	62	-50	-60	31
239	-547	-25	-2	31
331	-1272	100	44	31
380	-706	115	54	31
279	-128	120	185	31
61	-136	26	95	31
-26	148	-60	-95	31
-101	65	-204	-70	31
-178	123	-240	-11	31
-111	39	-54	6	31
-65	1	65	-10	31
-44	148	137	-6	31
70	112	208	-47	31
-20	155	174	-74	31
-112	63	34	-16	31
17	43	-102	83	31
-57	-59	-123	218	31
-36	68	-90	210	31
38	348	-52	52	31
-26	376	45	-12	31
-145	457	57	-88	31
-249	335	-26	-84	31
-176	145	-122	37	31
-109	156	-85	14	31
-62	79	1	-4	31
-87	221	7	-41	31
-169	718	108	-68	31
-402	849	103	-25	31
-415	292	6	-11	31
245	-910	28	-26	31
795	-1403	41	-35	31
528	-285	-41	-11	31
62	978	-12	-10	31
-369	1308	12	-27	31
-535	560	-40	-26	31
-225	274	73	32	31
-185	1149	155	65	31
-22	260	90	26	31
413	-1907	17	-40	31
787	-2233	-75	-44	31
872	-1597	-62	-5	31
522	-563	-26	2	31
203	-141	-47	-20	31
176	-1385	21	-12	31
460	-1387	51	21	31
319	614	84	35	31
-124	1444	107	104	31
-541	1717	93	114	31
-807	2067	126	27	31
-835	797	109	-49	31
-663	-313	16	-107	31
117	-811	2	-106	31
714	-1941	237	-60	31
697	-838	130	44	31
391	196	-288	79	31
16	-817	-487	54	31
-37	123	-528	4	31
113	-199	-211	-39	31
42	-1243	2	29	31
-86	-274	52	-47	31
-262	323	166	-56	31
-358	683	269	-23	31
-209	882	446	-98	31
-62	340	182	-30	31
150	-497	-366	54	31
132	-530	-637	98	31
75	-166	-491	-11	31
72	3	-226	-135	31
-143	485	-155	-75	31
-312	1009	-104	28	31
-509	1188	-36	172	31
-569	1054	107	203	31
-337	457	270	130	31
74	-523	550	88	31
372	-685	656	9	31
253	125	269	-81	31
-37	1359	-99	-117	31
-195	1969	-191	-140	31
-198	757	117	-9	31
-55	-1021	102	46	31
31	-1552	-264	-99	31
-61	-1241	-343	-105	31
107	-1699	-220	-113	31
406	-1782	246	-163	31
582	-753	333	-128	31
428	-512	-171	18	31
49	-254	-578	211	31
36	109	-374	341	31
14	132	231	348	31
-80	350	456	193	31
-102	364	325	-14	31
-115	259	252	-126	31
-50	71	128	-238	31
-35	235	-158	-115	31
-80	379	-253	90	31
-133	361	-72	-90	31
-92	424	89	-186	31
-52	328	-75	-27	31
-59	288	-87	43	31
-48	237	368	-163	31
-26	274	566	-349	31
-11	280	556	-246	31
-33	238	482	2	31
-43	301	80	173	31
-107	443	-102	223	31
-104	500	-464	57	31
0	183	-876	60	31
65	-126	-267	370	31
39	-1	23	400	31
-39	-79	-210	297	31
12	-480	-244	107	31
33	-361	-547	90	31
1	-230	-330	-123	31
8	-161	102	-403	31
-21	-59	11	-155	31
-16	-241	-49	-143	31
2	-187	79	-322	31
37	-84	155	-181	31
21	-28	-55	78	31
-49	85	-134	-11	31
-29	297	159	-402	31
69	567	342	-450	31
34	701	-179	163	31
-92	705	-452	478	31
22	305	145	459	31
237	-303	583	451	31
320	-854	577	115	31
133	-618	342	-121	31
-152	-138	244	-132	31
-229	-242	216	-6	31
-229	-242	216	-6	31
-226	-251	199	1	31
-223	-261	182	8	31
-220	-271	165	15	31
-217	-280	147	22	31
-214	-290	130	29	31
-210	-300	113	36	31
-207	-310	96	44	31
-204	-319	78	51	31
-201	-329	61	58	31
-198	-339	44	65	31
-195	-348	27	72	31
-191	-358	9	79	31
-188	-368	-8	86	31
-185	-378	-25	94	31
-182	-387	-42	101	31
-179	-397	-60	108	31
-176	-407	-77	115	31
-172	-416	-94	122	31
-169	-426	-111	129	31
-166	-436	-129	137	31
-163	-446	-146	144	31
-160	-455	-163	151	31
-157	-465	-180	158	31
-153	-475	-198	165	31
-150	-484	-215	172	31
-147	-494	-232	179	31
-144	-504	-249	187	31
-141	-514	-267	194	31
-138	-523	-284	201	31
-134	-533	-301	208	31
-131	-543	-318	215	31
-128	-552	-336	222	31
-125	-562	-353	229	31
-122	-572	-370	237	31
-119	-582	-387	244	31
-115	-591	-405	251	31
-112	-601	-422	258	31
-109	-611	-439	265	31
-106	-620	-456	272	31
-103	-630	-474	280	31
-100	-640	-491	287	31
-96	-650	-508	294	31
-93	-659	-525	301	31
-90	-669	-543	308	31
-87	-679	-560	315	31
-84	-688	-577	322	31
-81	-698	-594	330	31
-77	-708	-612	337	31
-74	-718	-629	344	31
-71	-727	-646	351	31
-68	-737	-663	358	31
-65	-747	-681	365	31
-62	-756	-698	372	31
-58	-766	-715	380	31
-55	-776	-732	387	31
-52	-786	-750	394	31
-49	-795	-767	401	31
-46	-805	-784	408	31
-43	-815	-801	415	31
-39	-825	-819	423	31
206	-475	-301	586	31
393	176	621	186	31
108	18	1041	190	31
-203	382	494	496	31
-483	505	93	309	31
-565	750	333	-393	31
-297	746	591	-925	31
104	130	406	-645	31
563	-389	-24	-11	31
365	215	-580	133	31
-489	1379	-808	-146	31
-1124	1763	-965	34	31
-961	1464	-974	32	31
-220	-547	-257	-82	31
573	-2158	64	196	31
1048	-1656	507	17	31
884	-768	1170	-318	31
545	-396	1155	-494	31
163	312	317	-297	31
163	312	317	-297	31
174	286	321	-294	31
186	259	325	-291	31
197	232	329	-288	31
209	205	333	-285	31
221	178	337	-281	31
232	151	341	-278	31
244	124	345	-275	31
255	97	349	-272	31
267	70	353	-268	31
279	43	357	-265	31
290	16	361	-262	31
302	-11	365	-259	31
313	-38	369	-255	31
325	-65	373	-252	31
337	-92	377	-249	31
348	-119	381	-246	31
360	-146	385	-242	31
372	-172	390	-239	31
383	-199	394	-236	31
395	-226	398	-233	31
406	-253	402	-229	31
418	-280	406	-226	31
430	-307	410	-223	31
441	-334	414	-220	31
453	-361	418	-216	31
464	-388	422	-213	31
476	-415	426	-210	31
488	-442	430	-207	31
499	-469	434	-203	31
511	-496	438	-200	31
523	-523	442	-197	31
534	-550	446	-194	31
546	-577	450	-190	31
557	-604	454	-187	31
569	-631	459	-184	31
581	-657	463	-181	31
592	-684	467	-178	31
604	-711	471	-174	31
615	-738	475	-171	31
627	-765	479	-168	31
639	-792	483	-165	31
650	-819	487	-161	31
662	-846	491	-158	31
674	-873	495	-155	31
685	-900	499	-152	31
697	-927	503	-148	31
708	-954	507	-145	31
720	-981	511	-142	31
732	-1008	515	-139	31
743	-1035	519	-135	31
755	-1062	523	-132	31
766	-1089	527	-129	31
778	-1115	532	-126	31
790	-1142	536	-122	31
801	-1169	540	-119	31
813	-1196	544	-116	31
825	-1223	548	-113	31
836	-1250	552	-109	31
848	-1277	556	-106	31
859	-1304	560	-103	31
871	-1331	564	-100	31
883	-1358	568	-96	31
894	-1385	572	-93	31
906	-1412	576	-90	31
917	-1439	580	-87	31
929	-1466	584	-83	31
941	-1493	588	-80	31
952	-1520	592	-77	31
964	-1547	596	-74	31
976	-1574	601	-70	31
1532	-1647	352	-56	31
815	-752	32	-782	31
-1	-426	399	-304	31
-108	-2	653	-385	31
-301	418	310	113	31
-413	98	54	744	31
-632	135	-383	790	31
-291	68	12	1289	31
-72	636	800	564	31
-522	948	962	355	31
-587	1071	515	-252	31
-580	902	-85	-1017	31
-580	-100	-730	-761	31
-148	-618	-880	50	31
668	-647	-558	261	31
516	-220	-699	90	31
116	20	-132	159	31
380	103	368	112	31
-270	205	244	201	31
-270	205	244	201	31
-268	205	242	199	31
-265	204	240	197	31
-262	203	238	195	31
-259	203	236	193	31
-256	202	234	191	31
-253	201	231	189	31
-251	201	229	187	31
-248	200	227	185	31
-245	199	225	183	31
-242	199	223	181	31
-239	198	220	179	31
-236	197	218	177	31
-234	197	216	175	31
-231	196	214	173	31
-228	195	212	171	31
-225	195	209	169	31
-222	194	207	167	31
-219	193	205	165	31
-217	193	203	163	31
-214	192	201	161	31
-211	191	199	159	31
-208	191	196	157	31
-205	190	194	155	31
-202	189	192	153	31
-200	189	190	151	31
-197	188	188	148	31
-194	187	185	146	31
-191	187	183	144	31
-188	186	181	142	31
-185	185	179	140	31
-182	185	177	138	31
-180	184	174	136	31
-177	183	172	134	31
-174	183	170	132	31
-171	182	168	130	31
-168	181	166	128	31
-165	181	164	126	31
-163	180	161	124	31
-160	179	159	122	31
-157	179	157	120	31
-154	178	155	118	31
-151	177	153	116	31
-148	177	150	114	31
-146	176	148	112	31
-143	175	146	110	31
-140	175	144	108	31
-137	174	142	106	31
-134	173	139	104	31
-131	173	137	102	31
-129	172	135	100	31
-126	171	133	98	31
-123	171	131	95	31
-120	170	128	93	31
-117	169	126	91	31
-114	169	124	89	31
-112	168	122	87	31
-109	167	120	85	31
-106	167	118	83	31
-103	166	115	81	31
-100	165	113	79	31
-97	165	111	77	31
-94	164	109	75	31
-92	163	107	73	31
-89	163	104	71	31
-86	162	102	69	31
-83	161	100	67	31
-80	161	98	65	31
-77	160	96	63	31
-75	159	93	61	31
-72	159	91	59	31
-69	158	89	57	31
-66	157	87	55	31
-63	157	85	53	31
-60	156	83	51	31
-58	155	80	49	31
-55	155	78	47	31
-52	154	76	45	31
-49	153	74	42	31
-46	153	72	40	31
-43	152	69	38	31
-41	151	67	36	31
-38	151	65	34	31
-35	150	63	32	31
-32	149	61	30	31
-29	149	58	28	31
-26	148	56	26	31
-24	147	54	24	31
-21	147	52	22	31
-18	146	50	20	31
-15	145	47	18	31
-12	145	45	16	31
-9	144	43	14	31
-6	143	41	12	31
-4	143	39	10	31
-1	142	37	8	31
2	141	34	6	31
5	141	32	4	31
8	140	30	2	31
11	139	28	0	31
13	139	26	-2	31
16	138	23	-4	31
19	137	21	-6	31
22	137	19	-9	31
25	136	17	-11	31
28	135	15	-13	31
30	135	12	-15	31
33	134	10	-17	31
36	133	8	-19	31
39	133	6	-21	31
42	132	4	-23	31
45	131	2	-25	31
47	131	-1	-27	31
50	130	-3	-29	31
53	129	-5	-31	31
56	129	-7	-33	31
59	128	-9	-35	31
62	127	-12	-37	31
64	127	-14	-39	31
67	126	-16	-41	31
70	125	-18	-43	31
73	125	-20	-45	31
76	124	-23	-47	31
79	123	-25	-49	31
82	123	-27	-51	31
84	122	-29	-53	31
87	121	-31	-55	31
90	121	-33	-57	31
93	120	-36	-59	31
96	119	-38	-62	31
99	119	-40	-64	31
101	118	-42	-66	31
104	117	-44	-68	31
107	117	-47	-70	31
110	116	-49	-72	31
113	115	-51	-74	31
116	115	-53	-76	31
118	114	-55	-78	31
121	113	-58	-80	31
124	113	-60	-82	31
127	112	-62	-84	31
130	111	-64	-86	31
133	111	-66	-88	31
135	110	-69	-90	31
138	109	-71	-92	31
141	109	-73	-94	31
144	108	-75	-96	31
147	107	-77	-98	31
150	107	-79	-100	31
152	106	-82	-102	31
155	105	-84	-104	31
158	105	-86	-106	31
161	104	-88	-108	31
164	103	-90	-110	31
167	103	-93	-112	31
170	102	-95	-115	31
172	101	-97	-117	31
175	101	-99	-119	31
178	100	-101	-121	31
181	99	-104	-123	31
184	99	-106	-125	31
187	98	-108	-127	31
189	97	-110	-129	31
192	97	-112	-131	31
195	96	-114	-133	31
198	95	-117	-135	31
201	95	-119	-137	31
204	94	-121	-139	31
206	93	-123	-141	31
209	93	-125	-143	31
212	92	-128	-145	31
215	91	-130	-147	31
218	91	-132	-149	31
221	90	-134	-151	31
223	89	-136	-153	31
226	89	-139	-155	31
229	88	-141	-157	31
232	87	-143	-159	31
235	87	-145	-161	31
238	86	-147	-163	31
241	85	-150	-166	31
-31	-22	376	-300	31
131	300	304	-69	31
-266	127	321	242	31
-535	-153	255	612	31
-234	-96	26	948	31
411	35	133	284	31
211	146	174	-120	31
-453	-115	-188	-478	31
-330	-203	-61	-473	31
-380	-77	199	241	31
-423	289	-111	226	31
-483	397	-22	204	31
-457	88	-79	298	31
-116	-318	-565	-23	31
240	-598	-266	-590	31
1021	-379	87	-378	31
1410	-292	-247	1	31
756	-47	-229	-240	31
1	49	-282	-26	31
20	-59	-302	-162	31
84	184	168	-221	31
-1	293	434	-108	31
-207	229	451	-140	31
-483	-60	84	153	31
-279	-270	-219	132	31
-178	-201	-323	146	31
-82	-45	-224	238	31
-131	135	-75	198	31
-474	211	22	112	31
-474	211	22	112	31
-471	206	22	113	31
-467	201	21	114	31
-463	195	20	116	31
-459	190	19	117	31
-455	184	18	118	31
-451	179	17	120	31
-447	173	16	121	31
-443	168	15	122	31
-439	162	14	124	31
-435	157	13	125	31
-431	151	12	126	31
-427	146	11	128	31
-423	140	10	129	31
-419	135	9	130	31
-415	129	8	132	31
-411	124	7	133	31
-407	119	6	134	31
-403	113	5	136	31
-399	108	4	137	31
-395	102	3	139	31
-391	97	2	140	31
-387	91	1	141	31
-383	86	0	143	31
-379	80	-1	144	31
-375	75	-2	145	31
-371	69	-3	147	31
-367	64	-4	148	31
-363	58	-5	149	31
-359	53	-6	151	31
-355	47	-7	152	31
-352	42	-7	153	31
-348	37	-8	155	31
-344	31	-9	156	31
-340	26	-10	157	31
-336	20	-11	159	31
-332	15	-12	160	31
-328	9	-13	161	31
-324	4	-14	163	31
-320	-2	-15	164	31
-316	-7	-16	166	31
-312	-13	-17	167	31
-308	-18	-18	168	31
-304	-24	-19	170	31
-300	-29	-20	171	31
-296	-35	-21	172	31
-292	-40	-22	174	31
-288	-45	-23	175	31
-284	-51	-24	176	31
-280	-56	-25	178	31
-276	-62	-26	179	31
-272	-67	-27	180	31
-268	-73	-28	182	31
-264	-78	-29	183	31
-260	-84	-30	184	31
-256	-89	-31	186	31
-252	-95	-32	187	31
-248	-100	-33	188	31
-244	-106	-34	190	31
-240	-111	-35	191	31
-236	-117	-36	193	31
-357	42	-167	135	31
-209	140	-8	-36	31
89	128	215	-99	31
-79	84	399	-41	31
281	-69	701	44	31
617	-331	654	-253	31
-99	-294	210	-261	31
-822	365	198	213	31
-1117	726	4	150	31
-856	204	-375	-595	31
42	-415	-494	-874	31
1106	-474	-919	-220	31
1788	-226	-696	328	31
990	-205	-249	181	31
-28	-98	-287	-87	31
-207	-97	-52	-403	31
-242	-166	35	-598	31
237	113	318	-185	31
198	264	638	236	31
198	264	638	236	31
199	260	638	224	31
201	256	637	211	31
203	252	636	198	31
205	248	635	186	31
207	244	634	173	31
209	240	634	160	31
211	235	633	147	31
213	231	632	135	31
215	227	631	122	31
217	223	630	109	31
219	219	629	96	31
221	215	629	84	31
223	211	628	71	31
225	206	627	58	31
227	202	626	46	31
229	198	625	33	31
231	194	624	20	31
232	190	624	7	31
234	186	623	-5	31
236	182	622	-18	31
238	177	621	-31	31
240	173	620	-44	31
242	169	619	-56	31
244	165	619	-69	31
246	161	618	-82	31
248	157	617	-94	31
250	153	616	-107	31
252	148	615	-120	31
254	144	614	-133	31
256	140	614	-145	31
258	136	613	-158	31
260	132	612	-171	31
262	128	611	-184	31
264	124	610	-196	31
266	119	609	-209	31
267	115	609	-222	31
269	111	608	-234	31
271	107	607	-247	31
273	103	606	-260	31
275	99	605	-273	31
277	95	605	-285	31
279	90	604	-298	31
281	86	603	-311	31
283	82	602	-324	31
285	78	601	-336	31
287	74	600	-349	31
289	70	600	-362	31
291	66	599	-374	31
293	61	598	-387	31
295	57	597	-400	31
297	53	596	-413	31
299	49	595	-425	31
300	45	595	-438	31
302	41	594	-451	31
304	37	593	-464	31
306	32	592	-476	31
308	28	591	-489	31
310	24	590	-502	31
312	20	590	-514	31
314	16	589	-527	31
316	12	588	-540	31
318	8	587	-553	31
320	3	586	-565	31
322	-1	585	-578	31
324	-5	585	-591	31
326	-9	584	-604	31
328	-13	583	-616	31
330	-17	582	-629	31
332	-21	581	-642	31
334	-26	580	-655	31
-225	112	677	-893	31
-295	101	604	-309	31
-162	121	467	488	31
-189	100	209	321	31
-284	49	-163	729	31
-506	4	32	756	31
-316	-43	348	-109	31
-146	63	366	-707	31
-279	249	126	-1343	31
-279	249	126	-1343	31
-282	244	126	-1331	31
-285	239	126	-1319	31
-288	234	127	-1307	31
-291	229	127	-1295	31
-294	224	128	-1283	31
-297	219	128	-1271	31
-300	214	129	-1258	31
-303	209	129	-1246	31
-306	204	130	-1234	31
-309	199	130	-1222	31
-312	194	131	-1210	31
-315	188	131	-1198	31
-318	183	132	-1186	31
-321	178	132	-1173	31
-324	173	133	-1161	31
-327	168	133	-1149	31
-330	163	134	-1137	31
-334	158	134	-1125	31
-337	153	134	-1113	31
-340	148	135	-1101	31
-343	143	135	-1088	31
-346	138	136	-1076	31
-349	133	136	-1064	31
-352	127	137	-1052	31
-355	122	137	-1040	31
-358	117	138	-1028	31
-361	112	138	-1016	31
-364	107	139	-1003	31
-367	102	139	-991	31
-370	97	140	-979	31
-373	92	140	-967	31
-376	87	141	-955	31
-379	82	141	-943	31
-382	77	142	-931	31
-386	71	142	-918	31
-389	66	142	-906	31
-392	61	143	-894	31
-395	56	143	-882	31
-398	51	144	-870	31
-401	46	144	-858	31
-404	41	145	-846	31
-407	36	145	-833	31
-410	31	146	-821	31
-413	26	146	-809	31
-416	21	147	-797	31
-419	16	147	-785	31
-422	10	148	-773	31
-425	5	148	-761	31
-428	0	149	-748	31
-431	-5	149	-736	31
-434	-10	150	-724	31
-437	-15	150	-712	31
-441	-20	150	-700	31
-444	-25	151	-688	31
-447	-30	151	-676	31
-450	-35	152	-663	31
-453	-40	152	-651	31
-456	-45	153	-639	31
-459	-51	153	-627	31
-462	-56	154	-615	31
-465	-61	154	-603	31
-468	-66	155	-591	31
-471	-71	155	-578	31
-474	-76	156	-566	31
-477	-81	156	-554	31
-480	-86	157	-542	31
-483	-91	157	-530	31
-486	-96	158	-518	31
-489	-101	158	-506	31
-493	-107	159	-493	31
189	19	86	-240	31
222	232	345	-511	31
97	285	219	-158	31
-6	308	-200	325	31
-204	184	171	363	31
145	-157	342	226	31
-423	-121	141	-775	31
-481	-5	-53	-885	31
-410	106	-100	-95	31
23	272	-327	283	31
590	-74	-65	653	31
-5	-158	454	373	31
-288	-91	90	87	31
-451	-395	-312	322	31
-290	105	-748	-77	31
-1	894	-626	128	31
-287	692	22	812	31
-666	135	-61	327	31
-196	-796	116	-387	31
755	-1205	251	-652	31
655	-515	102	-629	31
550	-216	536	-28	31
550	-79	971	1072	31
172	37	847	1142	31
438	135	-31	-203	31
211	120	-1045	-1307	31
-317	-13	-1220	-1173	31
-248	221	-574	-173	31
-220	167	-152	262	31
-220	167	-152	262	31
-217	165	-150	262	31
-214	163	-147	263	31
-211	160	-145	264	31
-207	158	-142	264	31
-204	156	-140	265	31
-201	153	-137	266	31
-197	151	-134	267	31
-194	149	-132	267	31
-191	146	-129	268	31
-187	144	-127	269	31
-184	142	-124	269	31
-181	139	-122	270	31
-177	137	-119	271	31
-174	135	-116	272	31
-171	132	-114	272	31
-167	130	-111	273	31
-164	128	-109	274	31
-161	125	-106	274	31
-157	123	-104	275	31
-154	121	-101	276	31
-151	118	-98	277	31
-147	116	-96	277	31
-144	114	-93	278	31
-141	111	-91	279	31
-137	109	-88	279	31
-134	107	-86	280	31
-131	104	-83	281	31
-127	102	-80	282	31
-124	99	-78	282	31
-121	97	-75	283	31
-117	95	-73	284	31
-114	92	-70	284	31
-111	90	-68	285	31
-107	88	-65	286	31
-104	85	-62	287	31
-101	83	-60	287	31
-97	81	-57	288	31
-94	78	-55	289	31
-91	76	-52	290	31
-87	74	-50	290	31
-84	71	-47	291	31
-81	69	-44	292	31
-77	67	-42	292	31
-74	64	-39	293	31
-71	62	-37	294	31
-67	60	-34	295	31
-64	57	-32	295	31
-61	55	-29	296	31
-57	53	-26	297	31
-54	50	-24	297	31
-51	48	-21	298	31
-47	46	-19	299	31
-44	43	-16	300	31
-41	41	-14	300	31
-37	38	-11	301	31
-34	36	-8	302	31
-31	34	-6	302	31
-28	31	-3	303	31
-24	29	-1	304	31
-21	27	2	305	31
-18	24	4	305	31
-14	22	7	306	31
-11	20	10	307	31
-8	17	12	307	31
-4	15	15	308	31
-1	13	17	309	31
2	10	20	310	31
6	8	22	310	31
9	6	25	311	31
12	3	28	312	31
16	1	30	312	31
19	-1	33	313	31
22	-4	35	314	31
26	-6	38	315	31
29	-8	40	315	31
32	-11	43	316	31
36	-13	46	317	31
39	-15	48	318	31
42	-18	51	318	31
46	-20	53	319	31
49	-22	56	320	31
52	-25	58	320	31
56	-27	61	321	31
59	-30	64	322	31
62	-32	66	323	31
66	-34	69	323	31
69	-37	71	324	31
72	-39	74	325	31
76	-41	76	325	31
79	-44	79	326	31
82	-46	82	327	31
86	-48	84	328	31
89	-51	87	328	31
92	-53	89	329	31
96	-55	92	330	31
99	-58	94	330	31
102	-60	97	331	31
106	-62	100	332	31
109	-65	102	333	31
112	-67	105	333	31
116	-69	107	334	31
119	-72	110	335	31
122	-74	112	335	31
126	-76	115	336	31
129	-79	118	337	31
132	-81	120	338	31
136	-83	123	338	31
139	-86	125	339	31
142	-88	128	340	31
146	-91	131	341	31
106	208	-16	-145	31
-286	291	178	125	31
-195	51	457	332	31
29	-201	734	262	31
136	-228	625	169	31
222	34	-108	111	31
67	542	-470	401	31
-579	525	-716	355	31
-830	-33	-253	-191	31
-548	-43	548	-16	31
246	295	292	-198	31
750	-160	-247	-1028	31
-38	-738	-574	-650	31
1028	-232	-593	-179	31
1740	264	519	-598	31
166	272	601	151	31
-138	274	-26	453	31
-214	-150	-94	-99	31
-421	-244	-683	156	31
112	-119	-322	-154	31
27	-229	-41	164	31
-277	34	-13	439	31
-524	158	246	-113	31
-698	117	-45	330	31
-739	-37	85	424	31
-471	-274	434	50	31
754	-50	821	320	31
971	111	689	47	31
304	90	247	-302	31
44	90	-23	-355	31
-416	-80	-158	-208	31
-38	-1	286	311	31
475	128	13	250	31
378	49	-489	3	31
57	135	-638	-150	31
-189	269	-964	-173	31
-85	216	-401	-39	31
-92	-6	-52	85	31
-130	-179	19	130	31
-282	-171	60	-49	31
-248	-92	-213	-155	31
-323	-168	-147	-11	31
-225	-289	-113	128	31
-27	-164	2	52	31
-39	169	164	-11	31
42	197	368	-248	31
-383	-173	399	-369	31
-431	-354	334	-113	31
-322	-11	251	46	31
-342	338	74	-2	31
112	16	56	-49	31
179	-312	141	266	31
319	-302	313	329	31
666	-148	193	65	31
143	-195	-37	150	31
-178	-254	-198	54	31
387	105	-203	-70	31
340	149	1	267	31
-43	265	-27	628	31
-43	265	-27	628	31
-43	263	-27	617	31
-42	261	-26	606	31
-41	259	-26	595	31
-40	257	-25	584	31
-39	255	-24	573	31
-38	253	-24	561	31
-37	251	-23	550	31
-36	249	-23	539	31
-35	247	-22	528	31
-34	245	-21	517	31
-33	243	-21	505	31
-32	241	-20	494	31
-31	239	-20	483	31
-30	236	-19	472	31
-29	234	-18	461	31
-28	232	-18	450	31
-27	230	-17	438	31
-26	228	-17	427	31
-25	226	-16	416	31
-24	224	-15	405	31
-23	222	-15	394	31
-22	220	-14	382	31
-21	218	-14	371	31
-20	216	-13	360	31
-19	214	-12	349	31
-18	212	-12	338	31
-17	210	-11	326	31
-16	207	-11	315	31
-15	205	-10	304	31
-14	203	-9	293	31
-13	201	-9	282	31
-12	199	-8	271	31
-11	197	-8	259	31
-10	195	-7	248	31
-9	193	-6	237	31
-9	191	-6	226	31
-8	189	-5	215	31
-7	187	-5	203	31
-6	185	-4	192	31
-5	183	-3	181	31
-4	181	-3	170	31
-3	178	-2	159	31
-2	176	-2	148	31
-1	174	-1	136	31
0	172	0	125	31
1	170	0	114	31
2	168	1	103	31
3	166	1	92	31
4	164	2	80	31
5	162	3	69	31
6	160	3	58	31
7	158	4	47	31
8	156	4	36	31
9	154	5	24	31
10	152	6	13	31
11	149	6	2	31
12	147	7	-9	31
13	145	7	-20	31
14	143	8	-31	31
15	141	9	-43	31
16	139	9	-54	31
17	137	10	-65	31
18	135	10	-76	31
19	133	11	-87	31
20	131	12	-99	31
21	129	12	-110	31
22	127	13	-121	31
23	125	13	-132	31
24	123	14	-143	31
25	120	15	-155	31
-108	188	-97	-150	31
-200	220	-182	-55	31
49	139	-21	135	31
363	21	135	307	31
316	-285	-5	323	31
-177	-264	-49	-1	31
-47	-141	-166	-273	31
61	-319	-92	42	31
-41	-188	-26	284	31
104	21	-9	259	31
-74	63	337	124	31
-105	141	280	120	31
-307	209	175	-86	31
-370	227	55	-361	31
-168	215	-13	-402	31
-67	140	-33	-97	31
97	-167	17	17	31
143	-348	284	-113	31
249	-297	269	95	31
368	-36	160	-15	31
-24	140	-244	27	31
-297	-29	-615	87	31
95	120	-420	-85	31
467	146	-47	-226	31
382	31	39	-100	31
-75	37	-47	108	31
6	-16	72	95	31
-111	-55	249	74	31
-321	-54	218	-158	31
-107	59	-3	-69	31
-259	-19	-161	5	31
74	41	-143	151	31
117	57	-67	231	31
-98	-76	-194	-84	31
92	-156	-377	-87	31
-111	-260	-291	-46	31
-218	-69	6	56	31
-179	44	29	72	31
66	125	-65	-154	31
238	161	124	102	31
185	125	176	506	31
269	235	267	511	31
387	171	328	353	31
278	187	290	-294	31
84	282	310	-454	31
136	322	259	-84	31
6	249	223	-44	31
-137	-138	26	185	31
-259	-592	-303	345	31
-253	-673	-386	299	31
-238	-317	-149	-722	31
-272	-140	58	-812	31
-78	-105	107	42	31
27	-26	-98	-320	31
88	-92	-133	-237	31
40	-32	-40	83	31
-12	34	-239	135	31
7	37	-117	208	31
9	61	-12	203	31
-60	59	-88	80	31
-39	127	-26	142	31
128	109	-127	262	31
99	90	-145	221	31
155	151	-61	244	31
101	188	8	62	31
-167	186	98	-14	31
-239	82	221	-279	31
-314	-14	401	-322	31
-291	-113	449	-278	31
-116	-252	231	-321	31
-30	-307	-22	-81	31
17	-271	-151	-145	31
174	-171	-257	4	31
241	-64	-151	3	31
219	32	-132	-133	31
115	23	-136	-41	31
-78	-22	60	-37	31
-10	36	139	91	31
125	53	320	133	31
78	55	125	299	31
-130	58	-294	603	31
-183	59	-324	430	31
-189	88	-251	-117	31
-233	75	10	-173	31
-54	105	357	-1	31
110	128	236	-67	31
102	103	-179	-41	31
92	37	-300	-129	31
193	-54	-217	-225	31
67	6	-47	-23	31
132	67	41	87	31
168	75	-16	20	31
-135	99	10	175	31
-207	-41	-6	75	31
-302	-100	27	-106	31
-211	102	140	22	31
-123	219	178	-76	31
-175	26	252	-72	31
-7	-96	202	-14	31
145	-59	-60	9	31
103	11	-169	204	31
134	140	-280	223	31
231	118	-306	26	31
53	156	-77	-79	31
-25	268	-4	17	31
-42	206	31	217	31
165	-36	62	167	31
298	-406	90	-99	31
18	-528	185	-233	31
178	-452	228	-415	31
119	-408	150	-171	31
-199	-281	-49	-47	31
-219	-88	-236	-120	31
-271	135	-224	-66	31
-132	379	-7	-135	31
-8	586	122	168	31
137	550	135	232	31
257	114	75	236	31
117	-500	11	223	31
22	-516	35	193	31
135	-25	39	37	31
137	80	68	-406	31
-90	-69	85	-353	31
52	-310	47	-228	31
126	-354	-27	-207	31
23	-18	-146	-204	31
47	125	-189	-145	31
-64	53	-161	135	31
-89	-53	-14	539	31
-170	-133	187	348	31
-234	-155	196	-304	31
-203	-92	233	-34	31
-165	12	277	188	31
-126	94	408	77	31
-148	216	317	204	31
-106	295	-109	41	31
-100	305	-203	-100	31
14	251	-342	-247	31
70	94	-163	-199	31
70	94	-163	-199	31
70	96	-159	-199	31
70	98	-154	-199	31
69	100	-150	-199	31
69	102	-145	-199	31
68	104	-140	-199	31
68	106	-136	-199	31
67	108	-131	-199	31
67	111	-126	-199	31
66	113	-122	-199	31
66	115	-117	-199	31
65	117	-113	-199	31
65	119	-108	-199	31
64	121	-103	-199	31
64	123	-99	-199	31
63	126	-94	-200	31
63	128	-89	-200	31
62	130	-85	-200	31
62	132	-80	-200	31
61	134	-76	-200	31
61	136	-71	-200	31
60	138	-66	-200	31
60	141	-62	-200	31
59	143	-57	-200	31
59	145	-52	-200	31
58	147	-48	-200	31
58	149	-43	-200	31
57	151	-39	-200	31
57	153	-34	-200	31
56	156	-29	-200	31
56	158	-25	-201	31
56	160	-20	-201	31
55	162	-15	-201	31
55	164	-11	-201	31
54	166	-6	-201	31
54	168	-2	-201	31
53	171	3	-201	31
53	173	8	-201	31
52	175	12	-201	31
52	177	17	-201	31
51	179	22	-201	31
51	181	26	-201	31
50	183	31	-201	31
50	186	35	-201	31
49	188	40	-201	31
49	190	45	-202	31
48	192	49	-202	31
48	194	54	-202	31
47	196	59	-202	31
47	198	63	-202	31
46	201	68	-202	31
46	203	72	-202	31
45	205	77	-202	31
45	207	82	-202	31
44	209	86	-202	31
44	211	91	-202	31
43	213	96	-202	31
43	216	100	-202	31
42	218	105	-202	31
42	220	109	-202	31
41	222	114	-203	31
41	224	119	-203	31
41	226	123	-203	31
40	228	128	-203	31
40	231	133	-203	31
39	233	137	-203	31
39	235	142	-203	31
38	237	146	-203	31
38	239	151	-203	31
37	241	156	-203	31
37	243	160	-203	31
36	246	165	-203	31
36	248	170	-203	31
35	250	174	-203	31
35	252	179	-203	31
34	254	183	-204	31
34	256	188	-204	31
33	258	193	-204	31
33	261	197	-204	31
32	263	202	-204	31
32	265	207	-204	31
31	267	211	-204	31
31	269	216	-204	31
30	271	220	-204	31
30	273	225	-204	31
29	276	230	-204	31
29	278	234	-204	31
28	280	239	-204	31
28	282	244	-204	31
27	284	248	-204	31
27	286	253	-205	31
27	288	257	-205	31
26	291	262	-205	31
26	293	267	-205	31
25	295	271	-205	31
25	297	276	-205	31
24	299	281	-205	31
24	301	285	-205	31
23	303	290	-205	31
23	306	294	-205	31
22	308	299	-205	31
22	310	304	-205	31
21	312	308	-205	31
21	314	313	-205	31
20	316	318	-205	31
20	318	322	-206	31
19	321	327	-206	31
19	323	331	-206	31
18	325	336	-206	31
18	327	341	-206	31
17	329	345	-206	31
17	331	350	-206	31
16	333	355	-206	31
16	336	359	-206	31
15	338	364	-206	31
15	340	368	-206	31
14	342	373	-206	31
14	344	378	-206	31
13	346	382	-206	31
13	348	387	-206	31
12	351	392	-207	31
-19	218	542	-26	31
-29	225	234	7	31
-62	606	-204	34	31
-222	1271	-328	-251	31
-482	1367	-67	-402	31
-672	1014	327	-257	31
-595	377	437	142	31
-424	-42	178	85	31
-148	341	22	-57	31
168	-476	-303	114	31
332	-2214	-203	120	31
338	-1724	-27	109	31
429	-1024	-203	-96	31
522	-918	-120	-128	31
423	-364	-84	-325	31
338	-998	-45	-446	31
110	-384	45	-74	31
-160	528	231	234	31
-365	271	452	643	31
-432	-16	189	874	31
-378	-385	-164	570	31
41	-65	-29	-105	31
928	7	61	-228	31
861	-64	145	233	31
166	237	75	-41	31
92	493	-368	-501	31
-87	797	-412	-138	31
-297	710	-322	45	31
-221	249	-107	-27	31
-153	-366	-123	439	31
-79	-411	-280	619	31
-157	224	-182	703	31
-265	953	-67	613	31
-479	1897	321	-537	31
-567	1987	270	-1721	31
-448	1217	234	-1144	31
-318	-560	515	53	31
-12	-1684	815	62	31
156	71	1024	48	31
111	475	701	85	31
130	-1525	24	-448	31
494	-2139	-444	-377	31
684	-1930	-789	38	31
476	-1174	-1298	-342	31
266	-512	-972	-19	31
-12	38	-314	383	31
-70	522	289	262	31
-116	958	719	276	31
-101	1740	638	221	31
13	1325	106	415	31
-58	96	-749	168	31
98	-1078	-957	125	31
118	-1214	-295	261	31
-67	-594	502	47	31
-105	-456	1271	-332	31
-112	-72	2022	-535	31
-127	267	1117	-81	31
-234	403	-964	511	31
-343	568	-2136	532	31
-364	746	-2049	101	31
-331	793	-734	-8	31
-155	469	315	39	31
28	269	338	134	31
58	26	163	290	31
260	-287	294	8	31
244	-201	160	-645	31
37	-79	80	-824	31
284	-394	162	-365	31
483	-471	147	163	31
460	-147	186	300	31
254	194	60	257	31
-103	320	-1	218	31
-219	34	64	-270	31
-186	-432	332	-698	31
-218	-34	524	-16	31
-327	1368	689	611	31
-431	1995	939	142	31
-376	1539	1135	436	31
-137	-142	781	446	31
405	-2114	-345	-410	31
663	-2018	-1246	-369	31
176	-690	-1271	-226	31
-105	256	-723	-491	31
-38	815	-281	-384	31
-110	760	-195	142	31
-176	193	-356	141	31
-160	107	-203	82	31
-63	523	196	229	31
-55	249	292	287	31
-15	-558	198	-89	31
127	-1534	114	-156	31
266	-1955	60	275	31
351	-1065	-31	-1	31
157	-457	234	-305	31
33	-119	743	-148	31
-43	227	477	250	31
-168	334	-237	267	31
-141	739	-667	-36	31
-122	700	-902	-48	31
-53	263	-686	216	31
-45	-164	-71	444	31
-61	-113	532	388	31
-46	27	709	-161	31
-50	-44	89	-519	31
-25	310	-386	-74	31
-39	595	-108	251	31
-4	460	146	251	31
-71	-60	381	-401	31
-37	-361	184	-740	31
156	-312	-456	7	31
170	55	-234	80	31
305	451	-34	352	31
331	214	-674	739	31
153	36	-806	260	31
72	-11	-586	-181	31
-44	-53	-424	-491	31
-239	-170	158	-578	31
-337	-310	583	-896	31
-274	-232	378	-547	31
-195	-158	193	63	31
-43	-7	213	-106	31
36	46	121	52	31
-2	84	134	193	31
19	130	213	427	31
19	56	203	817	31
53	70	230	622	31
21	108	176	374	31
-33	68	-100	560	31
-75	-1	-344	343	31
-137	-7	-404	-50	31
-136	46	-67	-786	31
-114	189	311	-1019	31
-38	267	484	-118	31
76	108	591	-112	31
208	-117	416	67	31
255	8	109	199	31
169	396	-343	-74	31
-31	372	-548	27	31
-195	119	-512	87	31
-195	119	-512	87	31
-195	119	-507	85	31
-195	118	-502	83	31
-195	117	-497	81	31
-195	116	-492	79	31
-195	116	-487	77	31
-195	115	-482	75	31
-195	114	-477	73	31
-195	113	-472	71	31
-196	112	-467	69	31
-196	112	-461	67	31
-196	111	-456	65	31
-196	110	-451	63	31
-196	109	-446	61	31
-196	108	-441	59	31
-196	108	-436	57	31
-196	107	-431	55	31
-197	106	-426	53	31
-197	105	-421	51	31
-197	105	-415	49	31
-197	104	-410	47	31
-197	103	-405	45	31
-197	102	-400	43	31
-197	101	-395	41	31
-197	101	-390	39	31
-198	100	-385	37	31
-198	99	-380	35	31
-198	98	-375	33	31
-198	97	-370	31	31
-198	97	-364	29	31
-198	96	-359	27	31
-198	95	-354	25	31
-198	94	-349	23	31
-199	93	-344	21	31
-199	93	-339	19	31
-199	92	-334	17	31
-199	91	-329	15	31
-199	90	-324	13	31
-199	90	-318	11	31
-199	89	-313	9	31
-199	88	-308	7	31
-200	87	-303	5	31
-200	86	-298	3	31
-200	86	-293	1	31
-200	85	-288	-1	31
-200	84	-283	-3	31
-200	83	-278	-5	31
-200	82	-273	-7	31
-200	82	-267	-9	31
-201	81	-262	-11	31
-201	80	-257	-13	31
-201	79	-252	-15	31
-201	79	-247	-17	31
-201	78	-242	-19	31
-201	77	-237	-21	31
-201	76	-232	-23	31
-201	75	-227	-25	31
-202	75	-221	-28	31
-202	74	-216	-30	31
-202	73	-211	-32	31
-202	72	-206	-34	31
-202	71	-201	-36	31
-202	71	-196	-38	31
-202	70	-191	-40	31
-202	69	-186	-42	31
-203	68	-181	-44	31
-203	67	-176	-46	31
-203	67	-170	-48	31
-203	66	-165	-50	31
-203	65	-160	-52	31
-203	64	-155	-54	31
-203	64	-150	-56	31
-203	63	-145	-58	31
-204	62	-140	-60	31
-204	61	-135	-62	31
-204	60	-130	-64	31
-204	60	-124	-66	31
-204	59	-119	-68	31
-204	58	-114	-70	31
-204	57	-109	-72	31
-204	56	-104	-74	31
-205	56	-99	-76	31
-205	55	-94	-78	31
-205	54	-89	-80	31
-205	53	-84	-82	31
-205	52	-78	-84	31
-205	52	-73	-86	31
-205	51	-68	-88	31
-205	50	-63	-90	31
-205	49	-58	-92	31
-206	49	-53	-94	31
-206	48	-48	-96	31
-206	47	-43	-98	31
-206	46	-38	-100	31
-206	45	-33	-102	31
-206	45	-27	-104	31
-206	44	-22	-106	31
-206	43	-17	-108	31
-207	42	-12	-110	31
-207	41	-7	-112	31
-207	41	-2	-114	31
-207	40	3	-116	31
-207	39	8	-118	31
-207	38	13	-120	31
-207	38	19	-122	31
-207	37	24	-124	31
-208	36	29	-126	31
-208	35	34	-128	31
-208	34	39	-130	31
-208	34	44	-132	31
-208	33	49	-134	31
-208	32	54	-136	31
-208	31	59	-138	31
-208	30	64	-140	31
-209	30	70	-143	31
-209	29	75	-145	31
-209	28	80	-147	31
-209	27	85	-149	31
-209	26	90	-151	31
-209	26	95	-153	31
-209	25	100	-155	31
-209	24	105	-157	31
-210	23	110	-159	31
-210	23	116	-161	31
-210	22	121	-163	31
-210	21	126	-165	31
-210	20	131	-167	31
-210	19	136	-169	31
-210	19	141	-171	31
-210	18	146	-173	31
-211	17	151	-175	31
-211	16	156	-177	31
-211	15	161	-179	31
-211	15	167	-181	31
-211	14	172	-183	31
-211	13	177	-185	31
-211	12	182	-187	31
-211	12	187	-189	31
-212	11	192	-191	31
-212	10	197	-193	31
-212	9	202	-195	31
-212	8	207	-197	31
-212	8	213	-199	31
-212	7	218	-201	31
-212	6	223	-203	31
-212	5	228	-205	31
-213	4	233	-207	31
-213	4	238	-209	31
-213	3	243	-211	31
-213	2	248	-213	31
-213	1	253	-215	31
-213	0	258	-217	31
-213	0	264	-219	31
-213	-1	269	-221	31
-214	-2	274	-223	31
-214	-3	279	-225	31
-214	-3	284	-227	31
-214	-4	289	-229	31
-214	-5	294	-231	31
-214	-6	299	-233	31
-214	-7	304	-235	31
-214	-7	310	-237	31
-215	-8	315	-239	31
-215	-9	320	-241	31
-215	-10	325	-243	31
-215	-11	330	-245	31
-215	-11	335	-247	31
-215	-12	340	-249	31
-215	-13	345	-251	31
-215	-14	350	-253	31
-216	-15	356	-256	31
-109	-34	-12	72	31
-155	-252	-466	1100	31
-29	-387	-534	1355	31
66	-218	-80	133	31
-4	-22	-170	-233	31
-58	-23	-230	-447	31
-144	17	-205	-630	31
-163	42	-395	-107	31
-280	88	-123	-127	31
-311	179	39	-52	31
-253	226	85	-22	31
-122	333	107	-39	31
173	438	80	35	31
454	378	274	-27	31
516	138	288	37	31
269	-173	62	120	31
100	-405	-54	267	31
-4	-308	-112	386	31
-126	-211	259	309	31
22	-237	770	-69	31
49	-63	620	-357	31
-150	-26	226	-292	31
-218	-107	-416	-108	31
-244	-192	-634	-147	31
-244	-336	-447	-132	31
16	-191	-154	-81	31
57	47	355	-259	31
-130	136	49	-211	31
-148	151	-529	-55	31
-213	33	-706	-82	31
55	18	-250	-2	31
298	111	176	4	31
188	16	174	89	31
148	0	243	398	31
-42	79	24	277	31
-299	68	-30	-7	31
-262	153	-24	4	31
-59	217	-92	-44	31
-162	194	-52	-49	31
-144	128	-4	5	31
197	-108	76	-2	31
267	-331	137	-112	31
544	-250	127	-145	31
776	-139	70	-38	31
341	-148	143	118	31
113	-12	90	291	31
51	67	58	85	31
-75	45	145	-16	31
-62	83	221	41	31
-112	106	237	28	31
-89	156	62	268	31
-127	148	35	409	31
-154	146	271	464	31
-109	126	391	261	31
-105	-1	69	-94	31
-86	3	-538	-337	31
-146	-17	-1041	-713	31
-212	-142	-725	-435	31
-235	-156	-7	-60	31
-272	-114	25	-47	31
-163	17	76	100	31
7	145	203	9	31
141	139	59	-44	31
273	100	124	-93	31
180	45	-32	-137	31
14	70	-160	-234	31
-47	106	14	-138	31
-159	-67	-39	97	31
-153	-257	-173	92	31
-93	-287	-280	144	31
-166	-228	-144	70	31
-93	-198	146	27	31
65	-146	255	-100	31
237	64	285	-186	31
373	203	173	1	31
263	162	-19	377	31
22	74	-133	264	31
-41	-72	90	-137	31
175	-110	349	42	31
254	118	287	-16	31
133	277	211	-6	31
43	203	47	-11	31
-117	66	-178	-7	31
-256	-166	-255	84	31
-260	-297	-148	41	31
-211	-278	-24	37	31
-153	-251	97	-135	31
-4	-104	264	-134	31
36	9	234	-105	31
-46	37	335	-160	31
-19	93	429	57	31
-55	119	236	479	31
-85	116	248	109	31
-71	96	25	89	31
-14	95	-494	284	31
171	101	-646	-136	31
233	90	-742	-140	31
132	69	-655	-300	31
98	41	-329	-185	31
37	58	-134	23	31
-67	92	-29	140	31
-68	90	36	324	31
-89	37	130	163	31
-130	-69	74	-95	31
-160	-208	10	-328	31
-166	-268	29	-218	31
-170	-137	76	-115	31
-137	-12	122	-77	31
30	11	65	64	31
30	11	65	64	31
32	12	76	61	31
34	13	88	57	31
37	14	100	54	31
39	15	111	50	31
41	16	123	47	31
44	17	135	43	31
46	18	147	39	31
48	19	158	36	31
51	20	170	32	31
53	22	182	29	31
55	23	193	25	31
58	24	205	22	31
60	25	217	18	31
62	26	229	14	31
65	27	240	11	31
67	28	252	7	31
69	29	264	4	31
72	30	275	0	31
74	31	287	-3	31
76	33	299	-7	31
79	34	311	-11	31
81	35	322	-14	31
83	36	334	-18	31
86	37	346	-21	31
88	38	357	-25	31
90	39	369	-28	31
93	40	381	-32	31
95	41	393	-36	31
97	42	404	-39	31
100	44	416	-43	31
102	45	428	-46	31
104	46	439	-50	31
107	47	451	-53	31
109	48	463	-57	31
112	49	475	-61	31
114	50	486	-64	31
116	51	498	-68	31
119	52	510	-71	31
121	53	521	-75	31
123	55	533	-78	31
126	56	545	-82	31
128	57	557	-86	31
130	58	568	-89	31
133	59	580	-93	31
135	60	592	-96	31
137	61	603	-100	31
140	62	615	-103	31
142	63	627	-107	31
144	64	639	-111	31
147	66	650	-114	31
149	67	662	-118	31
151	68	674	-121	31
154	69	685	-125	31
156	70	697	-128	31
158	71	709	-132	31
161	72	721	-136	31
163	73	732	-139	31
165	74	744	-143	31
168	75	756	-146	31
170	77	767	-150	31
172	78	779	-153	31
175	79	791	-157	31
177	80	803	-161	31
179	81	814	-164	31
182	82	826	-168	31
184	83	838	-171	31
186	84	849	-175	31
189	85	861	-178	31
191	86	873	-182	31
194	88	885	-186	31
27	-75	754	-417	31
-37	-183	390	-89	31
11	-108	-357	135	31
60	56	-659	25	31
123	104	-451	-75	31
42	77	-171	59	31
-21	-22	79	101	31
4	-141	249	-218	31
-70	-178	191	-229	31
-55	-98	-49	-38	31
-11	11	-333	306	31
-49	7	-328	381	31
7	53	64	320	31
-57	92	269	-295	31
-104	135	226	-370	31
-190	256	59	680	31
-459	335	-155	580	31
-394	323	-147	340	31
-69	221	-128	144	31
160	140	-151	-140	31
94	-67	-279	-210	31
161	-163	-280	-228	31
360	-65	192	210	31
251	-402	443	275	31
507	-607	493	939	31
710	-387	438	669	31
381	-262	58	-825	31
109	-49	-276	-788	31
-189	19	-383	-661	31
-366	65	-73	-807	31
-346	247	278	-446	31
-307	329	288	-340	31
-78	395	134	-15	31
121	244	75	138	31
78	-139	2	159	31
-46	-465	-294	458	31
-103	-376	-585	320	31
-112	-25	-524	107	31
-233	102	-119	243	31
-467	190	9	359	31
-454	247	-66	177	31
-334	119	-120	209	31
-461	196	-181	210	31
-142	391	-49	-11	31
550	363	56	-38	31
342	-19	163	-276	31
235	-582	317	-201	31
785	-602	459	320	31
444	-324	498	152	31
198	-102	373	-289	31
201	226	270	-559	31
8	329	107	-398	31
-63	272	-161	113	31
-485	-84	-360	80	31
-269	-457	-494	385	31
251	-342	-459	560	31
272	-172	-371	408	31
-146	49	-293	155	31
-406	146	44	-487	31
-226	66	261	-218	31
-62	166	405	236	31
131	280	541	281	31
10	347	357	36	31
58	214	59	-344	31
277	-99	-106	-415	31
210	-303	-195	-512	31
389	-215	-218	-483	31
575	11	25	-358	31
-21	7	-85	-155	31
-477	58	-221	89	31
-628	200	-7	201	31
-630	209	59	156	31
-297	150	120	87	31
-183	-27	-7	70	31
265	50	-26	181	31
342	217	-42	535	31
54	90	-21	837	31
50	-22	155	752	31
-455	-141	-98	11	31
-588	-48	-214	-711	31
44	129	115	-444	31
126	47	486	-242	31
55	138	519	-383	31
223	350	266	-203	31
269	549	-67	34	31
-327	406	-411	427	31
-1010	-312	-464	406	31
-58	-811	-299	-277	31
822	-928	-331	-581	31
840	-683	-194	-323	31
1063	-353	-17	269	31
920	-146	-58	540	31
-19	236	348	-33	31
-424	316	438	-320	31
-412	364	243	-171	31
-754	519	207	317	31
-703	446	4	616	31
-957	131	-80	241	31
-958	-211	-323	26	31
-484	-502	-264	-30	31
568	-694	360	115	31
1666	-437	619	-236	31
1335	-277	124	-679	31
1129	-16	-613	-854	31
842	182	-1189	-751	31
259	102	-1031	233	31
-176	297	-102	226	31
-664	349	196	117	31
-585	355	215	366	31
-625	227	164	-292	31
-595	60	57	-328	31
-176	145	286	324	31
457	185	282	396	31
383	-59	458	44	31
-113	-274	357	350	31
-70	-6	135	453	31
-448	492	400	213	31
-909	705	568	358	31
-993	152	206	365	31
-664	-368	-352	-291	31
-178	-883	-601	-881	31
939	-910	-623	-441	31
1692	-153	-102	60	31
673	-138	416	365	31
139	-9	442	578	31
-97	105	-135	-40	31
-353	89	-579	-389	31
-176	198	-233	-290	31
-518	-108	-86	-15	31
-694	81	-112	337	31
-561	386	-43	-297	31
-415	403	36	-207	31
-393	29	14	85	31
6	-400	36	-94	31
1055	-184	246	-98	31
1325	-77	505	-31	31
659	-257	410	396	31
188	-138	-121	331	31
97	97	-149	100	31
272	150	60	-147	31
223	108	-32	92	31
-30	-9	-26	463	31
-110	34	321	-57	31
-232	131	959	-161	31
-164	156	1424	-228	31
-183	240	811	-648	31
-236	235	-565	-435	31
-262	97	-1687	16	31
-374	-100	-2170	357	31
-160	-179	-1485	362	31
-1	-13	-589	276	31
-224	114	16	229	31
-408	65	508	453	31
-452	95	247	95	31
-486	103	122	-715	31
-141	54	221	-237	31
-17	-90	308	-44	31
-80	-153	396	-96	31
435	98	367	136	31
469	120	523	95	31
26	-34	337	375	31
126	-179	66	241	31
207	-199	152	-87	31
369	-26	721	135	31
541	162	1162	131	31
-201	452	289	-590	31
-570	587	-872	-1212	31
-342	545	-1492	-896	31
-120	293	-1190	-7	31
420	-343	-194	408	31
231	-943	79	338	31
-16	-689	-50	241	31
381	-175	-42	85	31
316	-220	-80	-426	31
-137	-188	95	-610	31
-362	-132	588	188	31
-190	117	519	508	31
-239	276	-51	165	31
-193	4	-439	7	31
-193	4	-439	7	31
-191	4	-426	9	31
-189	5	-413	11	31
-186	6	-399	14	31
-184	6	-386	16	31
-182	7	-373	18	31
-179	8	-359	21	31
-177	8	-346	23	31
-175	9	-333	25	31
-172	10	-319	28	31
-170	10	-306	30	31
-168	11	-292	32	31
-165	12	-279	35	31
-163	12	-266	37	31
-161	13	-252	39	31
-158	14	-239	42	31
-156	14	-226	44	31
-154	15	-212	46	31
-151	16	-199	49	31
-149	16	-186	51	31
-147	17	-172	53	31
-144	18	-159	56	31
-142	19	-145	58	31
-140	19	-132	60	31
-137	20	-119	63	31
-135	21	-105	65	31
-133	21	-92	67	31
-130	22	-79	70	31
-128	23	-65	72	31
-126	23	-52	74	31
-123	24	-38	77	31
-121	25	-25	79	31
-119	25	-12	81	31
-116	26	2	84	31
-114	27	15	86	31
-112	27	28	88	31
-109	28	42	91	31
-107	29	55	93	31
-105	29	68	95	31
-102	30	82	98	31
-100	31	95	100	31
-98	32	109	102	31
-95	32	122	105	31
-93	33	135	107	31
-91	34	149	109	31
-88	34	162	112	31
-86	35	175	114	31
-84	36	189	116	31
-81	36	202	119	31
-79	37	215	121	31
-77	38	229	123	31
-74	38	242	126	31
-72	39	256	128	31
-70	40	269	130	31
-67	40	282	133	31
-65	41	296	135	31
-63	42	309	137	31
-60	42	322	140	31
-58	43	336	142	31
-56	44	349	144	31
-53	45	363	147	31
-54	-37	131	-128	31
186	111	-307	-323	31
86	280	-514	-59	31
-241	234	-379	150	31
-300	193	-79	541	31
-332	-1	62	870	31
-58	-219	103	-9	31
509	-367	160	-1262	31
457	-310	113	-1138	31
174	3	-56	-521	31
103	134	30	-242	31
-41	126	120	274	31
218	152	258	333	31
242	118	243	123	31
-46	55	139	-62	31
-161	-65	79	-27	31
-108	-169	-16	234	31
17	-6	352	41	31
19	92	752	109	31
37	66	1101	194	31
-80	62	932	-125	31
-109	-32	-448	-89	31
-153	-56	-1266	58	31
-190	-27	-1814	-142	31
-125	-26	-1524	-86	31
-92	-94	11	-390	31
-45	-88	-24	-1138	31
-147	43	7	-510	31
-148	203	284	461	31
-102	227	325	378	31
-238	-31	770	-254	31
-362	-339	591	-182	31
-44	-259	131	590	31
373	346	-306	460	31
314	454	-290	337	31
237	16	255	438	31
58	-288	395	98	31
140	-439	-237	137	31
374	-142	-495	104	31
-135	99	-440	23	31
-315	269	-125	-36	31
-428	383	9	-206	31
-724	103	-87	-156	31
-388	-142	180	-80	31
-46	-374	164	75	31
223	-276	206	23	31
533	-95	146	20	31
714	-257	103	97	31
702	-226	128	74	31
741	-71	84	186	31
482	-84	128	320	31
-145	-146	-14	533	31
-264	30	-208	567	31
-420	174	-274	289	31
-530	131	-34	-574	31
-337	263	193	-1224	31
-211	351	185	-468	31
-160	242	165	13	31
-146	164	253	-261	31
367	229	208	70	31
794	499	241	20	31
714	218	165	-375	31
155	-790	-226	-345	31
-55	-997	-425	-206	31
-36	-452	-588	469	31
-296	-118	-219	162	31
-41	240	25	-327	31
-138	559	-67	87	31
-115	479	-6	-202	31
-115	479	-6	-202	31
-110	470	-9	-202	31
-105	461	-13	-203	31
-100	451	-17	-204	31
-95	442	-21	-204	31
-90	433	-24	-205	31
-84	423	-28	-206	31
-79	414	-32	-206	31
-74	404	-36	-207	31
-69	395	-40	-208	31
-64	386	-43	-208	31
-59	376	-47	-209	31
-53	367	-51	-210	31
-48	358	-55	-210	31
-43	348	-58	-211	31
-38	339	-62	-212	31
-33	329	-66	-212	31
-28	320	-70	-213	31
-22	311	-74	-214	31
-17	301	-77	-214	31
-12	292	-81	-215	31
-7	282	-85	-216	31
-2	273	-89	-217	31
3	264	-93	-217	31
9	254	-96	-218	31
14	245	-100	-219	31
19	236	-104	-219	31
24	226	-108	-220	31
29	217	-111	-221	31
34	207	-115	-221	31
40	198	-119	-222	31
45	189	-123	-223	31
50	179	-127	-223	31
55	170	-130	-224	31
60	160	-134	-225	31
65	151	-138	-225	31
71	142	-142	-226	31
76	132	-145	-227	31
81	123	-149	-227	31
86	114	-153	-228	31
91	104	-157	-229	31
96	95	-161	-230	31
102	85	-164	-230	31
107	76	-168	-231	31
112	67	-172	-232	31
117	57	-176	-232	31
122	48	-180	-233	31
127	38	-183	-234	31
133	29	-187	-234	31
138	20	-191	-235	31
143	10	-195	-236	31
148	1	-198	-236	31
153	-8	-202	-237	31
158	-18	-206	-238	31
164	-27	-210	-238	31
169	-37	-214	-239	31
174	-46	-217	-240	31
179	-55	-221	-240	31
184	-65	-225	-241	31
189	-74	-229	-242	31
195	-84	-233	-243	31
102	158	-202	-326	31
-213	138	-160	-212	31
-314	-131	-207	-224	31
-204	-300	-94	-231	31
87	-132	-2	-136	31
535	26	69	-64	31
593	-105	47	173	31
-46	-170	-52	-42	31
-293	-153	25	87	31
-122	104	197	289	31
-209	381	391	152	31
-96	404	479	104	31
-46	295	274	49	31
14	-84	-243	77	31
127	-294	-686	-36	31
282	67	-502	-24	31
191	576	-107	-76	31
-102	603	-92	-45	31
-64	8	-22	30	31
-123	-881	165	-49	31
93	-1090	251	-13	31
314	-491	145	34	31
176	-222	-34	32	31
6	-102	-146	14	31
-136	108	-159	37	31
102	189	10	-19	31
301	273	57	-111	31
68	277	98	-135	31
-197	437	80	-90	31
-285	556	44	-94	31
-284	183	39	-49	31
-92	-484	-51	46	31
44	-887	80	-2	31
156	-560	252	-27	31
103	-124	328	-24	31
-47	-55	225	29	31
32	56	-69	19	31
-107	69	-101	1	31
-150	61	85	155	31
-183	105	270	176	31
-146	73	273	155	31
107	131	-75	97	31
223	138	-422	14	31
149	151	-813	-24	31
-128	210	-712	-97	31
-112	176	-328	-16	31
-117	27	-310	85	31
-116	-141	-151	46	31
42	-85	-103	-64	31
95	83	200	-109	31
100	115	552	6	31
-145	148	597	-219	31
-145	130	466	-456	31
-81	45	118	-257	31
-38	6	-132	-186	31
136	-90	-131	152	31
50	-128	69	102	31
219	-57	-142	-33	31
233	45	-269	113	31
-176	69	-168	114	31
-269	113	-118	105	31
-318	-7	90	-84	31
-213	-199	174	141	31
185	-90	216	118	31
408	114	103	-81	31
436	226	-44	-145	31
108	235	-73	-73	31
-172	153	-114	54	31
-123	-63	-89	199	31
-123	-128	-52	252	31
-22	-100	46	-9	31
36	-104	50	-4	31
-26	-90	-49	-121	31
171	-166	-22	-19	31
308	-56	30	245	31
145	-59	69	191	31
107	-89	75	4	31
34	14	83	-22	31
-92	-39	87	62	31
7	11	48	-24	31
7	-2	22	12	31
-87	1	12	-14	31
-85	36	9	-16	31
-69	0	-1	-19	31
-95	34	-39	-53	31
-138	17	-41	-49	31
-199	-21	17	-31	31
-188	-90	24	12	31
-6	-41	92	-13	31
-59	48	156	1	31
-257	-57	146	-125	31
-60	-120	136	-241	31
187	-79	17	-272	31
370	17	-22	-183	31
257	82	-106	170	31
-37	41	-219	398	31
27	50	-44	301	31
-37	75	41	165	31
-63	83	192	73	31
-46	133	539	-44	31
-39	177	428	-72	31
10	150	-114	-40	31
-94	57	-666	-119	31
-38	-103	-621	-111	31
-31	-147	-77	-67	31
-41	35	112	-196	31
10	72	98	-54	31
61	72	-243	51	31
80	34	-537	-28	31
-70	-162	-317	-103	31
-93	-115	-341	-83	31
-2	-22	-194	24	31
55	-55	74	52	31
148	-41	92	236	31
113	-78	148	90	31
4	-206	125	-47	31
17	-233	135	48	31
15	-34	141	49	31
-4	104	94	128	31
-10	169	106	59	31
-24	265	150	127	31
-10	255	151	95	31
5	180	111	-100	31
34	-26	69	-220	31
-6	-269	3	-193	31
-120	-363	10	-46	31
-138	-323	69	-79	31
-42	-160	30	-36	31
-42	-31	-50	-26	31
-77	-15	-75	-44	31
-49	-17	-19	31	31
-72	-46	211	72	31
-113	-62	305	65	31
-203	-21	116	-152	31
-146	15	-98	-320	31
9	41	-201	-257	31
141	105	-32	-38	31
440	143	46	352	31
404	102	-108	535	31
35	94	-91	303	31
-27	128	-101	200	31
-53	144	-133	-21	31
-82	175	-85	-262	31
-36	163	-77	-191	31
-90	113	33	-218	31
-110	127	92	-12	31
-259	122	140	-14	31
-340	-26	264	-75	31
-249	-274	345	245	31
-135	-348	239	343	31
274	-107	106	315	31
495	-7	-12	319	31
317	-93	-130	264	31
261	37	7	170	31
168	52	-209	-113	31
112	11	-510	-617	31
175	52	-577	-581	31
73	-26	-388	-29	31
-7	-17	171	-23	31
67	13	176	-87	31
32	92	45	108	31
-74	124	-8	-37	31
-158	4	-242	-372	31
-180	-101	-77	-329	31
-130	-87	167	54	31
-92	75	290	31	31
-132	86	270	87	31
-251	63	31	87	31
-70	19	-193	-13	31
226	-86	-228	16	31
201	16	-95	-26	31
64	101	184	59	31
54	90	459	37	31
27	77	472	147	31
-28	32	299	221	31
-6	-9	-181	200	31
-7	-25	-585	183	31
-74	-59	-401	140	31
-221	-98	-29	-126	31
-293	-16	76	-482	31
-240	165	39	-291	31
-102	205	-21	-37	31
-6	28	-31	104	31
54	-121	224	264	31
155	-153	489	128	31
198	-150	347	-11	31
205	-103	-150	-57	31
124	-29	-492	-144	31
52	-37	-429	-112	31
25	3	6	-9	31
-25	145	219	260	31
-79	120	54	281	31
-126	-18	-95	132	31
-123	-243	-164	82	31
-31	-409	-38	-108	31
165	-229	22	17	31
70	-5	165	-9	31
-62	63	244	-138	31
45	67	-52	-208	31
-26	100	-205	-57	31
-82	198	-100	247	31
-91	146	65	146	31
-85	66	261	205	31
-82	-26	355	133	31
-150	-233	133	-51	31
-69	-224	-103	-364	31
-1	-69	-406	-388	31
7	-149	-470	-465	31
22	-201	-175	-568	31
35	-46	-207	39	31
102	-12	-41	167	31
80	25	29	405	31
-17	85	-70	336	31
-297	191	68	-36	31
-594	462	123	4	31
-538	575	325	-385	31
-223	593	494	-353	31
483	379	543	27	31
879	-142	290	390	31
613	-365	-155	724	31
594	-125	-294	703	31
258	165	-390	304	31
-167	67	-449	60	31
-321	-391	-188	-213	31
-497	-697	47	-578	31
-372	-563	67	-224	31
-305	-417	171	-71	31
157	-252	156	-26	31
570	163	86	7	31
376	313	108	-72	31
347	281	85	-70	31
242	179	54	-226	31
86	-47	-17	-72	31
92	-187	-217	18	31
76	-98	-330	-1	31
150	-51	-207	167	31
-111	-123	-46	64	31
-325	146	82	-80	31
-272	224	78	-57	31
-315	136	19	-123	31
-125	80	132	-41	31
27	59	464	95	31
79	260	522	69	31
53	247	254	-6	31
7	187	-139	-42	31
-122	-26	-610	-10	31
-180	-385	-483	49	31
7	-512	-124	242	31
47	-340	-75	-1	31
62	-54	6	-373	31
51	-19	59	-204	31
40	21	166	-8	31
7	39	379	211	31
-89	84	86	552	31
-281	231	-609	767	31
-485	327	-828	503	31
-522	525	-428	3	31
-430	545	119	-425	31
-288	159	654	-206	31
-287	-292	1096	87	31
-50	-185	896	-153	31
393	537	359	-183	31
547	1173	-91	-143	31
585	1061	-411	-117	31
314	-381	-462	-451	31
280	-1993	-580	-466	31
590	-1719	-379	-279	31
314	-540	177	-484	31
30	-72	274	-269	31
-164	293	-69	121	31
-185	444	-386	338	31
-87	221	-85	269	31
-131	177	649	100	31
-115	424	534	87	31
-220	795	39	130	31
-270	1001	-186	176	31
-227	290	-4	218	31
-50	-1220	594	333	31
77	-1577	421	110	31
-59	-578	-441	-168	31
-353	509	-1252	-74	31
-425	992	-929	16	31
-236	224	87	91	31
258	-1094	151	-53	31
1002	-1575	-416	-432	31
934	-920	-696	-398	31
443	-257	-396	100	31
288	123	-17	43	31
180	490	151	-151	31
29	492	235	26	31
-2	588	207	206	31
-147	586	140	249	31
-515	395	112	147	31
-620	138	141	169	31
-459	-64	252	63	31
-151	126	333	51	31
-121	144	297	1	31
-132	131	216	-147	31
1	313	259	-228	31
-163	427	507	-85	31
-158	241	701	203	31
-34	-259	454	253	31
95	-651	11	92	31
254	-750	-470	-185	31
229	-460	-846	-72	31
132	246	-333	388	31
-97	1272	-11	891	31
-342	1986	-60	927	31
-363	1702	268	383	31
-242	426	209	-163	31
-31	-1441	643	-604	31
226	-1827	990	-548	31
315	-224	70	-539	31
309	555	-778	-803	31
282	387	-1439	-651	31
139	-56	-1379	-292	31
57	-829	-193	97	31
122	-649	469	-168	31
-8	-501	556	-213	31
-290	-834	366	-78	31
-312	-649	-34	-181	31
-330	-574	-19	272	31
-237	-590	65	428	31
220	-344	100	226	31
617	46	39	108	31
549	452	-185	74	31
172	662	-398	2	31
-82	664	-402	31	31
-205	418	-178	80	31
-213	126	39	39	31
-145	21	484	70	31
-26	61	722	59	31
-307	135	784	107	31
-668	231	980	202	31
-593	373	793	340	31
-466	259	543	471	31
-70	8	-166	487	31
428	-217	-1406	110	31
903	-285	-1735	-677	31
1131	231	-1712	-971	31
842	465	-1115	-214	31
335	490	102	193	31
-10	606	230	-350	31
-205	156	552	-41	31
-239	-193	749	705	31
32	-712	343	813	31
54	-896	193	600	31
-35	125	-103	-12	31
-181	679	44	-443	31
-248	508	212	-634	31
-153	-8	74	-872	31
-155	-881	210	-512	31
-50	-629	565	123	31
-141	-24	461	227	31
-261	-201	91	-39	31
-261	109	-449	-322	31
-240	499	-645	-367	31
-119	399	-74	-134	31
-75	-57	94	212	31
-21	-776	60	27	31
106	-680	1	-169	31
174	-302	-75	35	31
146	-273	-45	214	31
57	-51	-49	288	31
39	97	42	208	31
52	222	128	256	31
28	329	147	200	31
32	323	65	204	31
22	346	62	173	31
35	267	78	121	31
11	241	87	136	31
-59	267	50	-80	31
-80	227	5	-235	31
-108	79	105	-378	31
-52	-70	292	-294	31
1	-142	478	125	31
-4	-247	280	476	31
62	-209	-127	190	31
57	-108	-296	-288	31
99	-44	-143	-245	31
139	11	-26	-255	31
-36	-52	-308	-97	31
-117	-17	-519	198	31
-129	74	-439	211	31
-123	49	-36	390	31
-80	-30	532	528	31
-107	-116	526	216	31
-12	-11	105	111	31
83	138	-337	112	31
77	133	-477	87	31
56	99	82	166	31
18	46	532	2	31
50	-90	678	-414	31
-4	-263	475	-956	31
-67	-340	-165	-517	31
-2	-241	-684	-1	31
46	-28	-1194	332	31
61	186	-267	1362	31
69	360	1030	984	31
60	457	350	-315	31
-21	403	-426	-1024	31
-84	269	-1059	-1590	31
-74	86	-1140	-1362	31
-20	-197	9	-71	31
87	-327	113	727	31
96	-321	-188	386	31
-29	-399	98	439	31
-107	-358	261	362	31
-65	-239	542	-190	31
-24	-160	504	-102	31
-15	-69	289	-64	31
-5	32	194	-65	31
19	145	-212	214	31
36	183	-140	75	31
108	219	252	-293	31
150	186	115	-243	31
41	-7	-16	-135	31
-23	-57	-234	162	31
-59	93	-277	221	31
-158	186	-151	56	31
-122	218	79	272	31
-57	259	1098	69	31
-108	209	1911	271	31
-119	300	1357	465	31
-144	528	-361	85	31
-178	370	-2013	-145	31
-77	-134	-2180	-463	31
135	-692	-1093	-352	31
172	-1001	-46	-266	31
98	-804	262	15	31
231	-358	459	110	31
272	-47	983	-87	31
52	-10	1028	175	31
10	-12	397	107	31
165	57	-227	12	31
92	104	-669	-43	31
-132	121	-256	29	31
-160	212	-103	236	31
-54	368	-235	395	31
57	327	208	668	31
242	14	227	669	31
210	-145	-174	335	31
127	-159	-810	-340	31
110	-303	-843	-878	31
99	-191	55	-812	31
146	26	279	-93	31
-2	191	50	-1	31
-47	496	362	-583	31
-49	598	465	-423	31
-132	367	323	-92	31
-181	-118	9	372	31
-147	-607	-402	1037	31
-36	-560	-177	784	31
-4	-171	532	73	31
-2	38	883	181	31
-78	222	575	-309	31
-144	254	91	-967	31
-257	75	-294	-838	31
-275	-28	-301	-547	31
-78	-239	123	10	31
98	-217	342	526	31
161	145	106	762	31
59	254	-173	70	31
-102	79	-309	-166	31
-137	-177	-286	-34	31
-34	-338	-478	-218	31
-34	-341	-644	-123	31
-62	-276	-350	7	31
24	-154	231	-197	31
16	-49	734	-146	31
-7	60	478	370	31
29	163	77	50	31
36	196	-292	-117	31
42	211	-500	-185	31
49	184	-488	-103	31
42	169	-588	409	31
12	136	-160	463	31
-2	135	111	319	31
0	224	130	263	31
-34	226	195	390	31
-63	145	249	277	31
-69	4	849	13	31
-37	-122	1161	-266	31
72	-102	426	-403	31
120	-98	-649	-304	31
68	-95	-1180	-89	31
70	-12	-882	-28	31
52	4	-218	-123	31
-2	30	-102	-13	31
-30	85	-196	-390	31
-46	159	-23	-685	31
-32	262	280	-43	31
-39	470	652	350	31
-21	706	388	421	31
27	484	32	913	31
58	106	15	889	31
45	-299	-92	-60	31
48	-879	-45	-670	31
32	-884	95	-924	31
-69	-615	133	-984	31
-50	-513	206	-401	31
-24	-301	46	125	31
-31	-162	-34	264	31
-31	-41	200	649	31
-10	110	481	971	31
23	193	881	570	31
-27	145	587	421	31
-6	97	-137	335	31
-1	102	-867	368	31
-41	-2	-1233	-46	31
-15	-80	-423	-911	31
33	-88	338	-1104	31
42	-37	211	-1007	31
-9	37	-366	-242	31
15	74	-918	-2	31
97	122	-666	8	31
65	131	27	511	31
-13	32	186	703	31
-49	-4	529	306	31
-82	68	826	-314	31
-55	139	413	-461	31
-45	164	-9	-652	31
-67	156	-456	-277	31
60	257	-613	291	31
197	390	-275	102	31
134	318	7	95	31
2	44	-9	200	31
-62	-260	-45	-29	31
-85	-451	266	-66	31
-49	-523	469	52	31
-33	-503	410	-31	31
-41	-366	307	249	31
1	-207	90	413	31
29	-62	-32	-234	31
-10	56	-68	-309	31
-12	153	8	75	31
-11	262	112	389	31
-50	277	-133	849	31
-56	240	-262	737	31
-57	150	-236	116	31
-20	8	-269	-405	31
23	-71	-63	-231	31
44	-118	45	-436	31
84	-113	130	-522	31
80	-62	248	23	31
26	-63	522	102	31
1	11	796	190	31
42	211	436	105	31
61	368	-140	64	31
48	509	-618	175	31
95	580	-52	198	31
-14	479	1081	60	31
-178	332	597	-227	31
-205	22	-591	-449	31
-236	-355	-1519	-670	31
-158	-537	-1930	-461	31
-34	-672	-793	-27	31
125	-694	19	321	31
230	-521	-108	608	31
170	-324	146	565	31
138	-157	325	434	31
65	-83	547	475	31
-8	-44	569	-68	31
72	57	539	-982	31
120	163	648	-1005	31
52	209	335	-474	31
8	212	77	-358	31
-72	118	-128	-502	31
-189	-9	-418	-197	31
-199	-49	-514	460	31
-122	-70	-443	680	31
-48	-29	-398	566	31
-34	36	-299	219	31
-15	70	-41	28	31
14	170	57	168	31
-2	228	127	-160	31
2	167	404	125	31
6	30	459	487	31
10	-93	257	305	31
28	-75	138	307	31
29	36	116	-49	31
36	94	247	-7	31
45	100	514	349	31
41	128	446	242	31
33	118	-9	-54	31
7	73	-581	-285	31
-53	31	-879	-351	31
-57	-26	-171	-724	31
-7	-87	781	-708	31
17	-85	788	-289	31
16	-34	343	-350	31
9	4	-88	-219	31
1	64	-492	-193	31
-16	93	-382	-47	31
-24	90	-181	132	31
-41	54	-504	55	31
-65	-59	-392	319	31
-80	-118	-87	481	31
-24	-79	-198	637	31
130	23	2	448	31
168	138	338	-85	31
87	117	312	-594	31
52	82	86	-716	31
-9	197	-151	-49	31
-173	194	-456	456	31
-203	65	-332	294	31
-81	-51	11	11	31
-26	-389	224	-352	31
95	-724	412	-335	31
173	-576	232	41	31
112	-277	-144	267	31
32	-165	-689	880	31
13	-29	-422	696	31
26	62	249	-92	31
-3	135	120	-98	31
-4	241	141	-147	31
-26	259	153	-4	31
-3	244	138	84	31
19	143	338	-19	31
-27	-14	434	-21	31
-21	-158	522	-226	31
3	-142	457	52	31
-24	-22	-139	132	31
-54	-7	-589	-19	31
11	7	-139	-55	31
37	34	110	-347	31
22	53	492	-211	31
-5	36	750	390	31
-44	14	-206	591	31
-26	64	-669	89	31
-26	138	-787	56	31
8	198	-1129	143	31
80	253	-440	-514	31
100	306	234	-694	31
50	249	-34	-171	31
-55	131	-174	-120	31
-214	-29	-209	-674	31
-304	-317	-167	-514	31
-215	-547	229	18	31
-57	-485	188	43	31
47	-276	221	214	31
105	-160	351	506	31
137	-56	150	484	31
127	31	163	546	31
94	102	207	367	31
75	174	213	-130	31
91	188	269	-216	31
42	198	256	86	31
-25	163	286	-410	31
-49	90	597	-994	31
-82	12	966	-456	31
-79	-98	916	-554	31
-89	-166	360	-407	31
-42	-87	-317	571	31
1	7	-1031	524	31
-11	16	-1619	204	31
20	57	-1454	294	31
9	76	-720	217	31
27	3	-521	95	31
52	-47	-503	-55	31
35	-29	385	-58	31
43	2	975	304	31
-1	-12	816	352	31
-41	-35	254	375	31
-55	-5	-415	488	31
-122	-32	-577	425	31
-128	-72	-184	305	31
-69	-55	770	224	31
47	-2	1182	129	31
173	126	645	-237	31
76	183	-94	-757	31
-50	186	-902	-1265	31
17	184	-928	-595	31
111	163	-132	135	31
87	166	257	-128	31
31	64	148	42	31
83	77	-8	-58	31
102	194	-290	-214	31
55	54	-378	1	31
-14	-141	79	247	31
-61	-232	513	257	31
-88	-287	575	112	31
-42	-297	407	9	31
-26	-274	-117	-225	31
-127	-244	-648	-28	31
-24	-266	-544	102	31
-5	-336	-160	104	31
-36	-282	43	139	31
41	-55	199	87	31
71	53	485	1	31
91	123	1417	-68	31
7	189	1983	59	31
7	114	1316	64	31
-47	47	-245	198	31
-23	-25	-1968	660	31
71	13	-2248	731	31
-3	100	-959	59	31
5	162	40	-115	31
-56	280	419	-229	31
-119	256	239	-585	31
-116	102	-47	219	31
-135	-123	119	-203	31
-32	-272	618	-513	31
74	-243	987	800	31
-4	-72	605	87	31
-69	84	-59	-717	31
54	47	-767	-686	31
139	68	-901	-635	31
143	95	-166	-89	31
108	19	310	156	31
-6	30	252	392	31
-85	91	375	388	31
-57	124	322	361	31
12	113	-135	140	31
95	86	-436	10	31
46	51	-309	239	31
-42	17	54	372	31
15	2	125	-279	31
-26	17	-17	-951	31
-26	17	-17	-951	31
-28	15	-9	-934	31
-30	13	0	-916	31
-33	11	9	-898	31
-35	9	17	-881	31
-37	7	26	-863	31
-40	5	35	-845	31
-42	2	44	-827	31
-44	0	52	-810	31
-47	-2	61	-792	31
-49	-4	70	-774	31
-51	-6	79	-756	31
-54	-8	87	-739	31
-56	-10	96	-721	31
-59	-13	105	-703	31
-61	-15	114	-685	31
-63	-17	122	-668	31
-66	-19	131	-650	31
-68	-21	140	-632	31
-70	-23	149	-614	31
-73	-25	157	-597	31
-75	-28	166	-579	31
-77	-30	175	-561	31
-80	-32	184	-543	31
-82	-34	192	-526	31
-84	-36	201	-508	31
-87	-38	210	-490	31
-89	-40	219	-472	31
-92	-43	227	-455	31
-94	-45	236	-437	31
-96	-47	245	-419	31
-99	-49	254	-401	31
-101	-51	262	-384	31
-103	-53	271	-366	31
-106	-55	280	-348	31
-108	-58	289	-330	31
-110	-60	297	-313	31
-113	-62	306	-295	31
-115	-64	315	-277	31
-117	-66	323	-260	31
-120	-68	332	-242	31
-122	-70	341	-224	31
-125	-73	350	-206	31
-127	-75	358	-189	31
-129	-77	367	-171	31
-132	-79	376	-153	31
-134	-81	385	-135	31
-136	-83	393	-118	31
-139	-85	402	-100	31
-141	-88	411	-82	31
-143	-90	420	-64	31
-146	-92	428	-47	31
-148	-94	437	-29	31
-150	-96	446	-11	31
-153	-98	455	7	31
-155	-100	463	24	31
-158	-103	472	42	31
-160	-105	481	60	31
-162	-107	490	78	31
-165	-109	498	95	31
-167	-111	507	113	31
-169	-113	516	131	31
-172	-115	525	149	31
-174	-118	533	166	31
-176	-120	542	184	31
-179	-122	551	202	31
-181	-124	560	220	31
-183	-126	568	237	31
-186	-128	577	255	31
-188	-130	586	273	31
-191	-133	595	291	31
-95	-95	641	-309	31
25	-79	209	-911	31
87	192	-540	-498	31
-85	776	-885	-77	31
-196	1253	-606	335	31
-219	1133	139	742	31
-239	535	565	589	31
-159	-799	438	967	31
35	-1722	44	201	31
168	-1037	-395	-1516	31
200	-398	-841	-2101	31
153	-181	-537	-1308	31
22	143	500	-120	31
209	135	1090	404	31
352	188	1225	509	31
189	204	604	104	31
12	186	-619	84	31
-84	305	-1340	100	31
-57	388	-851	-233	31
-85	505	-263	-47	31
-171	433	-396	35	31
-230	297	-251	115	31
-216	117	-26	249	31
-95	-155	165	123	31
86	-296	334	149	31
111	-241	409	283	31
-2	-85	476	374	31
69	-54	372	204	31
44	66	156	-1	31
-30	342	-242	56	31
-44	286	-244	8	31
-105	145	12	41	31
-50	292	136	33	31
-3	168	110	27	31
6	-164	-8	5	31
8	-251	65	-413	31
-43	-182	36	-396	31
-152	59	50	16	31
-103	-69	199	382	31
4	-900	26	430	31
59	-1084	25	185	31
89	-429	396	352	31
7	-94	277	140	31
-19	91	-53	219	31
14	225	-80	345	31
41	254	-110	-436	31
-20	251	-67	-655	31
-29	94	-11	-484	31
-44	-9	-166	-108	31
-163	-31	-136	130	31
-34	98	319	70	31
50	305	309	203	31
84	449	-49	93	31
62	462	-285	-542	31
-38	339	-171	-703	31
159	181	298	-264	31
324	-20	-5	-70	31
434	-116	-403	272	31
114	-188	-523	284	31
-133	-361	-548	37	31
69	-376	-211	198	31
-1	-201	-101	297	31
-9	-85	12	194	31
-54	-1	47	9	31
-72	127	44	-231	31
-76	173	189	-151	31
-125	227	304	86	31
-113	309	595	-199	31
-148	324	823	-107	31
-130	343	465	490	31
-280	275	-86	359	31
-286	77	-337	141	31
-94	-1	-626	1	31
107	-14	-537	-356	31
204	-523	-454	-519	31
72	-1024	-702	-263	31
102	-625	-164	83	31
145	-226	245	-415	31
67	-73	339	-328	31
11	136	489	261	31
-17	-10	373	392	31
-2	-239	317	1076	31
-16	-275	-162	972	31
13	-78	-384	-281	31
-1	99	-363	-557	31
-87	256	-355	-37	31
-117	431	284	-299	31
-133	459	432	-384	31
-224	365	87	-272	31
-224	365	87	-272	31
-224	365	85	-260	31
-225	365	82	-248	31
-225	364	79	-236	31
-226	364	76	-223	31
-226	364	73	-211	31
-227	363	71	-199	31
-227	363	68	-187	31
-228	363	65	-174	31
-228	362	62	-162	31
-229	362	59	-150	31
-229	362	57	-138	31
-230	361	54	-125	31
-230	361	51	-113	31
-231	360	48	-101	31
-231	360	45	-89	31
-232	360	42	-76	31
-232	359	40	-64	31
-233	359	37	-52	31
-233	359	34	-40	31
-234	358	31	-27	31
-234	358	28	-15	31
-235	358	26	-3	31
-235	357	23	9	31
-236	357	20	22	31
-236	357	17	34	31
-237	356	14	46	31
-237	356	12	58	31
-238	355	9	71	31
-238	355	6	83	31
-239	355	3	95	31
-239	354	0	107	31
-240	354	-3	120	31
-240	354	-5	132	31
-241	353	-8	144	31
-241	353	-11	157	31
-242	353	-14	169	31
-242	352	-17	181	31
-243	352	-19	193	31
-243	352	-22	206	31
-244	351	-25	218	31
-244	351	-28	230	31
-245	350	-31	242	31
-245	350	-34	255	31
-246	350	-36	267	31
-246	349	-39	279	31
-247	349	-42	291	31
-247	349	-45	304	31
-248	348	-48	316	31
-248	348	-50	328	31
-249	348	-53	340	31
-249	347	-56	353	31
-250	347	-59	365	31
-250	347	-62	377	31
-251	346	-64	389	31
-251	346	-67	402	31
-252	345	-70	414	31
-252	345	-73	426	31
-253	345	-76	438	31
-253	344	-79	451	31
-254	344	-81	463	31
-254	344	-84	475	31
-255	343	-87	487	31
-255	343	-90	500	31
-256	343	-93	512	31
-256	342	-95	524	31
-257	342	-98	536	31
-257	342	-101	549	31
-258	341	-104	561	31
-258	341	-107	573	31
-259	340	-110	586	31
-116	356	261	559	31
12	304	89	542	31
69	206	74	387	31
-23	-26	199	-196	31
-86	-125	453	-641	31
-166	-67	478	-210	31
-179	-17	190	-246	31
-210	-39	585	-486	31
-118	-103	846	-206	31
-74	-113	187	522	31
-154	24	-582	979	31
-82	235	-978	1259	31
-104	303	-966	871	31
-350	174	-1006	217	31
-429	-20	-1036	589	31
-114	-131	-777	1142	31
110	-235	469	21	31
494	-236	1447	-1518	31
618	-96	831	-1037	31
18	79	302	-1581	31
-88	284	-211	-2219	31
-123	244	-431	-1526	31
-50	-19	252	-464	31
347	-316	129	492	31
696	-310	-230	266	31
817	-59	125	86	31
161	-82	542	542	31
-68	-100	701	364	31
-98	2	187	398	31
-110	68	-109	148	31
130	138	103	183	31
89	65	744	448	31
-8	-112	952	487	31
-178	-230	-116	401	31
-117	-122	-1371	67	31
-138	55	-1658	-153	31
-192	29	-797	152	31
-132	41	-484	395	31
-173	85	-352	521	31
-129	57	70	810	31
-95	75	454	697	31
-22	42	750	619	31
-3	19	297	190	31
-12	-6	-203	-1028	31
-55	-6	-355	-1720	31
-103	31	-166	-461	31
-53	-2	-185	840	31
-46	-16	4	461	31
46	-24	357	171	31
62	-26	439	-222	31
-43	-19	319	-1049	31
-16	14	-213	-1005	31
9	65	-7	-239	31
23	81	319	-304	31
28	118	218	-208	31
-58	148	125	281	31
-156	146	171	720	31
-327	94	832	1307	31
-502	12	815	924	31
-486	-50	-90	1057	31
-358	-75	-688	1151	31
-208	-245	-1271	800	31
328	-379	-1453	711	31
861	-221	-1426	-342	31
454	-249	-1181	-1169	31
161	-158	350	-1526	31
482	94	1427	-2247	31
332	120	1175	-1681	31
281	125	730	-704	31
326	-118	414	-473	31
14	-144	345	266	31
-113	77	313	1027	31
-303	206	196	646	31
-278	338	-260	-677	31
1	64	-464	-633	31
271	-383	-365	431	31
295	-421	-241	-167	31
2	-31	196	-309	31
-74	242	74	450	31
-138	200	35	516	31
-149	16	673	990	31
-20	-236	1594	905	31
83	-177	1753	-98	31
73	2	315	-639	31
-129	-159	-1715	-886	31
-286	-228	-2345	-190	31
-315	188	-1584	1595	31
-202	613	-582	1011	31
-228	791	187	-623	31
-353	511	320	-126	31
-222	-162	123	148	31
-192	-517	238	-2	31
-95	-697	125	90	31
337	-624	451	241	31
635	-260	225	147	31
746	-176	98	-180	31
311	7	262	518	31
-213	258	270	1174	31
-193	153	45	1053	31
-233	-102	-474	393	31
70	-176	-117	-161	31
370	16	1043	-1465	31
122	185	1918	-2397	31
-4	161	715	-1098	31
-4	39	-1291	-838	31
-23	-17	-2095	-1009	31
-1	-27	-1124	-36	31
2	41	-140	2	31
-70	145	-32	394	31
-158	115	353	916	31
-157	112	248	566	31
-120	102	204	378	31
-59	76	35	289	31
-18	81	-88	146	31
65	150	64	-67	31
40	425	147	-36	31
-193	774	180	236	31
-269	949	-153	359	31
-239	592	-129	679	31
-116	-308	244	1070	31
128	-1180	985	1074	31
177	-1143	818	478	31
-67	-426	-464	-158	31
-231	-211	-1374	-1005	31
-54	-103	-1338	-1601	31
141	27	1	146	31
386	-62	-61	1689	31
499	16	-1102	1014	31
118	-6	-521	-757	31
-110	23	317	-1464	31
-64	110	805	-1457	31
-158	214	839	-2063	31
-87	365	556	-348	31
-80	332	253	587	31
-284	264	795	-205	31
-320	87	1443	-68	31
-143	69	924	67	31
-18	245	-127	220	31
-93	91	-1457	271	31
49	-36	-1511	93	31
70	28	-452	-38	31
-122	-386	-98	465	31
245	-818	-186	521	31
520	-622	64	464	31
296	-281	189	451	31
259	-185	155	394	31
113	-138	401	880	31
-36	-9	436	1119	31
7	64	252	483	31
7	64	252	483	31
7	63	259	479	31
7	61	266	475	31
8	59	273	470	31
8	57	281	466	31
9	56	288	462	31
9	54	295	457	31
10	52	303	453	31
10	50	310	449	31
11	48	317	444	31
11	47	324	440	31
12	45	332	435	31
12	43	339	431	31
12	41	346	427	31
13	40	354	422	31
13	38	361	418	31
14	36	368	414	31
14	34	375	409	31
15	32	383	405	31
15	31	390	401	31
16	29	397	396	31
16	27	405	392	31
17	25	412	387	31
17	23	419	383	31
18	22	427	379	31
18	20	434	374	31
18	18	441	370	31
19	16	448	366	31
19	15	456	361	31
20	13	463	357	31
20	11	470	352	31
21	9	478	348	31
21	7	485	344	31
22	6	492	339	31
22	4	499	335	31
23	2	507	331	31
23	0	514	326	31
23	-1	521	322	31
24	-3	529	318	31
24	-5	536	313	31
25	-7	543	309	31
25	-9	550	304	31
26	-10	558	300	31
26	-12	565	296	31
27	-14	572	291	31
27	-16	580	287	31
28	-18	587	283	31
28	-19	594	278	31
29	-21	602	274	31
29	-23	609	270	31
29	-25	616	265	31
30	-26	623	261	31
30	-28	631	256	31
31	-30	638	252	31
31	-32	645	248	31
32	-34	653	243	31
32	-35	660	239	31
33	-37	667	235	31
33	-39	674	230	31
34	-41	682	226	31
34	-43	689	221	31
34	-44	696	217	31
35	-46	704	213	31
35	-48	711	208	31
36	-50	718	204	31
36	-51	725	200	31
37	-53	733	195	31
37	-55	740	191	31
38	-57	747	187	31
38	-59	755	182	31
39	-60	762	178	31
39	-62	769	173	31
40	-64	777	169	31
40	-66	784	165	31
40	-67	791	160	31
41	-69	798	156	31
41	-71	806	152	31
42	-73	813	147	31
42	-75	820	143	31
43	-76	828	139	31
43	-78	835	134	31
44	-80	842	130	31
44	-82	849	125	31
45	-84	857	121	31
45	-85	864	117	31
45	-87	871	112	31
46	-89	879	108	31
46	-91	886	104	31
47	-92	893	99	31
47	-94	900	95	31
48	-96	908	90	31
48	-98	915	86	31
49	-100	922	82	31
49	-101	930	77	31
50	-103	937	73	31
50	-105	944	69	31
51	-107	952	64	31
51	-108	959	60	31
51	-110	966	56	31
52	-112	973	51	31
52	-114	981	47	31
53	-116	988	42	31
53	-117	995	38	31
54	-119	1003	34	31
54	-121	1010	29	31
55	-123	1017	25	31
55	-125	1024	21	31
56	-126	1032	16	31
56	-128	1039	12	31
56	-130	1046	8	31
57	-132	1054	3	31
57	-133	1061	-1	31
58	-135	1068	-6	31
58	-137	1075	-10	31
59	-139	1083	-14	31
59	-141	1090	-19	31
60	-142	1097	-23	31
60	-144	1105	-27	31
61	-146	1112	-32	31
61	-148	1119	-36	31
62	-150	1127	-41	31
239	-123	395	-22	31
322	-95	-502	37	31
19	-88	-1554	74	31
-136	-45	-1491	84	31
-77	6	-449	-125	31
-122	127	-164	-257	31
-29	135	161	-75	31
-56	61	754	-51	31
35	-29	743	-57	31
233	-97	553	87	31
170	-3	-161	170	31
-11	34	-814	198	31
-61	17	-639	395	31
-50	47	-209	-2	31
24	57	-93	-426	31
194	70	-4	-104	31
110	53	178	-127	31
4	44	164	-146	31
-4	47	149	-52	31
31	46	232	-12	31
54	28	203	100	31
-52	12	88	34	31
-72	73	125	-116	31
-66	131	179	-188	31
-81	166	196	-29	31
37	189	268	34	31
82	132	362	77	31
12	16	261	108	31
16	-84	103	131	31
2	-97	-258	199	31
-31	-74	-657	171	31
-25	-64	-290	157	31
-45	-102	-74	33	31
-81	-165	-89	-53	31
-173	-137	-29	-120	31
-283	36	-12	-100	31
-224	312	87	81	31
-96	377	-39	41	31
-221	191	-16	-42	31
-203	-165	51	-36	31
-27	-536	57	-110	31
-50	-527	232	-189	31
-29	-515	412	-172	31
12	-363	254	-63	31
170	-41	45	42	31
382	-93	-21	161	31
444	-81	-165	153	31
276	-103	-223	-49	31
93	-59	-378	-125	31
93	-59	-378	-125	31
91	-62	-370	-117	31
88	-65	-362	-108	31
85	-68	-354	-99	31
82	-71	-346	-91	31
79	-74	-337	-82	31
76	-77	-329	-73	31
73	-80	-321	-65	31
70	-84	-313	-56	31
67	-87	-305	-47	31
64	-90	-296	-39	31
61	-93	-288	-30	31
58	-96	-280	-21	31
55	-99	-272	-13	31
52	-102	-263	-4	31
49	-106	-255	5	31
46	-109	-247	13	31
43	-112	-239	22	31
40	-115	-231	31	31
37	-118	-222	39	31
34	-121	-214	48	31
32	-124	-206	57	31
29	-127	-198	65	31
26	-131	-190	74	31
23	-134	-181	83	31
20	-137	-173	91	31
17	-140	-165	100	31
14	-143	-157	109	31
11	-146	-148	117	31
8	-149	-140	126	31
5	-153	-132	135	31
2	-156	-124	143	31
-1	-159	-116	152	31
-4	-162	-107	161	31
-7	-165	-99	169	31
-10	-168	-91	178	31
-13	-171	-83	187	31
-16	-174	-74	195	31
-19	-178	-66	204	31
-22	-181	-58	213	31
-25	-184	-50	221	31
-27	-187	-42	230	31
-30	-190	-33	239	31
-33	-193	-25	247	31
-36	-196	-17	256	31
-39	-200	-9	265	31
-42	-203	-1	273	31
-45	-206	8	282	31
-48	-209	16	291	31
-51	-212	24	299	31
-54	-215	32	308	31
-57	-218	41	317	31
-60	-221	49	325	31
-63	-225	57	334	31
-66	-228	65	343	31
-69	-231	73	351	31
-72	-234	82	360	31
-75	-237	90	369	31
-78	-240	98	377	31
-81	-243	106	386	31
-84	-247	115	395	31
-118	-275	236	-423	31
-105	-290	484	-308	31
-86	-153	475	-139	31
-27	-24	148	-241	31
-12	0	-170	-77	31
-26	-56	-316	-83	31
-7	-229	-188	11	31
27	-145	-233	65	31
13	148	-84	104	31
-33	316	101	-55	31
-34	383	61	-214	31
-70	249	-50	-87	31
-118	13	-85	-41	31
-108	-85	163	102	31
28	-211	570	351	31
181	-280	759	266	31
128	-90	70	207	31
10	90	-739	244	31
1	119	-1124	-303	31
-16	143	-753	-471	31
167	130	-14	-105	31
430	-13	4	-17	31
166	-66	-96	117	31
21	-62	-241	96	31
81	-103	-83	17	31
-29	-26	334	-84	31
-10	-1	256	-140	31
-58	-95	146	-98	31
-53	-140	159	-90	31
-53	-140	159	-90	31
-52	-141	162	-90	31
-50	-143	165	-89	31
-48	-145	169	-89	31
-46	-146	172	-88	31
-44	-148	176	-88	31
-42	-150	179	-87	31
-40	-152	183	-86	31
-38	-153	186	-86	31
-36	-155	189	-85	31
-34	-157	193	-85	31
-33	-159	196	-84	31
-31	-160	200	-84	31
-29	-162	203	-83	31
-27	-164	207	-82	31
-25	-166	210	-82	31
-23	-167	214	-81	31
-21	-169	217	-81	31
-19	-171	220	-80	31
-17	-173	224	-80	31
-15	-174	227	-79	31
-14	-176	231	-78	31
-12	-178	234	-78	31
-10	-180	238	-77	31
-8	-181	241	-77	31
-6	-183	245	-76	31
-4	-185	248	-76	31
-2	-187	251	-75	31
0	-188	255	-74	31
2	-190	258	-74	31
4	-192	262	-73	31
5	-194	265	-73	31
7	-195	269	-72	31
9	-197	272	-72	31
11	-199	276	-71	31
13	-201	279	-70	31
15	-202	282	-70	31
17	-204	286	-69	31
19	-206	289	-69	31
21	-207	293	-68	31
23	-209	296	-68	31
24	-211	300	-67	31
26	-213	303	-66	31
28	-214	307	-66	31
30	-216	310	-65	31
32	-218	313	-65	31
34	-220	317	-64	31
36	-221	320	-64	31
38	-223	324	-63	31
40	-225	327	-62	31
42	-227	331	-62	31
43	-228	334	-61	31
45	-230	338	-61	31
47	-232	341	-60	31
49	-234	344	-60	31
51	-235	348	-59	31
53	-237	351	-58	31
55	-239	355	-58	31
57	-241	358	-57	31
59	-242	362	-57	31
61	-244	365	-56	31
62	-246	369	-56	31
64	-248	372	-55	31
66	-249	375	-54	31
68	-251	379	-54	31
70	-253	382	-53	31
72	-255	386	-53	31
74	-256	389	-52	31
76	-258	393	-52	31
78	-260	396	-51	31
80	-262	400	-50	31
84	-64	234	12	31
-70	-17	103	104	31
-49	165	36	167	31
-50	174	65	194	31
-75	193	88	54	31
-21	221	141	-227	31
-103	174	109	-107	31
-95	128	101	-67	31
-131	2	205	-94	31
-146	-60	53	130	31
-150	-252	-26	120	31
-109	-386	53	18	31
-50	-219	79	82	31
-44	-82	262	16	31
-44	28	682	27	31
-54	150	760	42	31
-8	163	350	30	31
-12	73	-409	121	31
-16	26	-1306	165	31
-27	169	-1180	28	31
-44	283	-399	-92	31
-22	267	41	59	31
33	198	455	90	31
93	97	438	62	31
70	203	98	125	31
27	408	-115	85	31
-59	496	-396	-25	31
-134	440	-467	-145	31
-37	124	-82	-220	31
114	-413	209	-264	31
145	-700	232	-188	31
139	-561	335	-98	31
96	-547	282	39	31
-15	-477	127	203	31
-81	-294	-16	136	31
-175	-218	26	48	31
-196	-44	-6	113	31
-122	141	176	156	31
-139	434	506	101	31
-123	429	109	316	31
-33	187	-383	893	31
64	-1	-844	929	31
176	-775	-459	44	31
237	-935	752	-577	31
214	-133	854	-608	31
115	16	331	-492	31
21	62	-268	-322	31
4	193	-878	-65	31
31	106	-354	-145	31
22	183	353	-490	31
-49	128	-156	-301	31
-95	155	-1182	-166	31
-95	208	-1100	-247	31
-89	208	99	-191	31
-89	236	295	32	31
-83	150	171	-158	31
-24	106	282	-623	31
78	118	62	-214	31
62	212	148	302	31
62	212	148	302	31
61	208	146	302	31
60	204	143	302	31
59	200	140	302	31
57	196	137	302	31
56	192	134	302	31
55	188	131	302	31
54	184	128	302	31
52	180	125	302	31
51	176	122	302	31
50	172	120	302	31
48	168	117	302	31
47	164	114	302	31
46	160	111	302	31
45	155	108	302	31
43	151	105	302	31
42	147	102	302	31
41	143	99	302	31
40	139	96	302	31
38	135	94	302	31
37	131	91	302	31
36	127	88	302	31
34	123	85	302	31
33	119	82	302	31
32	115	79	302	31
31	111	76	302	31
29	107	73	302	31
28	102	70	302	31
27	98	68	302	31
26	94	65	302	31
24	90	62	302	31
23	86	59	302	31
22	82	56	302	31
20	78	53	302	31
19	74	50	302	31
18	70	47	302	31
17	66	44	302	31
15	62	42	302	31
14	58	39	302	31
13	54	36	302	31
11	49	33	302	31
10	45	30	302	31
9	41	27	302	31
8	37	24	302	31
6	33	21	302	31
5	29	18	302	31
4	25	15	302	31
3	21	13	302	31
1	17	10	302	31
0	13	7	302	31
-1	9	4	302	31
-3	5	1	302	31
-4	1	-2	302	31
-5	-3	-5	302	31
-6	-8	-8	302	31
-8	-12	-11	302	31
-9	-16	-13	302	31
-10	-20	-16	302	31
-11	-24	-19	302	31
-13	-28	-22	302	31
-14	-32	-25	302	31
-15	-36	-28	302	31
-17	-40	-31	302	31
-18	-44	-34	302	31
-19	-48	-37	302	31
-20	-52	-39	302	31
-22	-56	-42	302	31
-23	-61	-45	302	31
-24	-65	-48	302	31
-25	-69	-51	302	31
-27	-73	-54	302	31
-28	-77	-57	302	31
-29	-81	-60	302	31
-31	-85	-63	302	31
-32	-89	-65	302	31
-33	-93	-68	302	31
-34	-97	-71	302	31
-36	-101	-74	302	31
-37	-105	-77	302	31
-38	-109	-80	302	31
-40	-114	-83	302	31
-41	-118	-86	302	31
-42	-122	-89	302	31
-43	-126	-92	302	31
-45	-130	-94	302	31
-46	-134	-97	302	31
-47	-138	-100	302	31
-48	-142	-103	302	31
-50	-146	-106	302	31
-51	-150	-109	302	31
-52	-154	-112	302	31
-54	-158	-115	302	31
-55	-162	-118	302	31
-56	-166	-120	302	31
-57	-171	-123	302	31
-59	-175	-126	302	31
-60	-179	-129	302	31
-61	-183	-132	302	31
-62	-187	-135	302	31
-64	-191	-138	302	31
-65	-195	-141	302	31
-66	-199	-144	302	31
-68	-203	-146	302	31
-69	-207	-149	302	31
-70	-211	-152	302	31
-71	-215	-155	302	31
-73	-219	-158	302	31
-74	-224	-161	302	31
-75	-228	-164	302	31
-76	-232	-167	302	31
-78	-236	-170	302	31
-79	-240	-172	302	31
-80	-244	-175	302	31
-82	-248	-178	302	31
-83	-252	-181	302	31
-84	-256	-184	302	31
-85	-260	-187	302	31
-87	-264	-190	302	31
-88	-268	-193	302	31
-89	-272	-196	302	31
-91	-277	-199	302	31
-82	-242	-441	394	31
-44	-232	-196	-59	31
29	-294	255	-100	31
-6	-280	304	148	31
-50	-169	198	185	31
-66	-103	-51	-360	31
-69	-87	-224	-673	31
-16	-82	49	-321	31
11	-44	24	-190	31
-7	64	97	319	31
-10	136	381	491	31
42	157	376	37	31
110	163	188	284	31
92	100	-193	441	31
5	-4	-368	135	31
-7	-60	-269	-87	31
-29	-62	-387	-224	31
-62	-41	-500	-345	31
25	6	-307	-310	31
42	77	-92	-40	31
28	214	156	104	31
42	316	-68	-9	31
-19	302	-138	-250	31
-75	260	225	-246	31
-133	50	328	162	31
-94	-84	530	280	31
14	39	351	142	31
41	-4	-125	156	31
64	-90	-419	494	31
123	-64	-206	541	31
75	-201	88	-221	31
12	-394	9	-451	31
53	-386	-88	-253	31
57	-241	-55	-522	31
90	-80	323	-541	31
37	80	287	-255	31
-122	153	62	-165	31
-191	215	-228	-325	31
-226	279	-465	-304	31
-174	304	-161	366	31
-79	259	-14	394	31
23	102	50	38	31
98	-50	62	188	31
44	-212	103	186	31
147	-186	216	320	31
313	34	294	297	31
190	-4	475	120	31
95	-209	193	120	31
42	-241	-409	2	31
-84	-172	-371	-117	31
-91	-89	-265	-14	31
-116	-31	-269	17	31
-127	-49	207	-26	31
-102	-70	340	142	31
-126	-87	284	152	31
-42	-84	97	110	31
212	11	-319	50	31
277	117	-352	128	31
59	72	-98	286	31
-16	-24	19	154	31
-30	-19	-31	-184	31
-26	50	233	-385	31
-40	132	349	-256	31
-120	254	204	-44	31
-81	419	194	103	31
-55	390	402	46	31
-26	208	269	218	31
40	83	-178	-7	31
38	-122	-610	-476	31
-42	-297	-1122	-441	31
8	-237	-527	-530	31
2	-189	257	-401	31
-70	-239	187	-106	31
-12	-226	261	-31	31
-17	-113	155	37	31
31	-20	-48	166	31
16	-19	-145	285	31
-25	-4	-179	267	31
-10	-7	141	266	31
-36	27	353	527	31
-29	79	401	621	31
-32	69	267	457	31
-21	101	-244	307	31
-40	123	-454	-29	31
-37	122	-311	-514	31
-4	115	-348	-636	31
26	93	-19	-73	31
77	82	299	62	31
125	104	133	-341	31
101	131	-51	-448	31
1	112	46	-412	31
-51	97	287	7	31
-86	110	104	278	31
-72	152	-175	92	31
-10	146	-244	14	31
-1	45	-197	12	31
-6	-70	-84	-9	31
-60	-261	98	-141	31
-127	-424	301	-44	31
-127	-424	301	-44	31
-126	-419	299	-46	31
-125	-414	297	-49	31
-124	-408	294	-52	31
-123	-403	292	-55	31
-122	-398	289	-58	31
-121	-392	287	-61	31
-120	-387	284	-64	31
-119	-381	282	-67	31
-118	-376	279	-70	31
-117	-371	277	-73	31
-116	-365	274	-76	31
-115	-360	272	-79	31
-114	-355	270	-82	31
-113	-349	267	-85	31
-112	-344	265	-88	31
-111	-338	262	-91	31
-110	-333	260	-94	31
-109	-328	257	-97	31
-108	-322	255	-100	31
-107	-317	252	-103	31
-106	-312	250	-106	31
-105	-306	247	-109	31
-104	-301	245	-112	31
-103	-295	242	-115	31
-102	-290	240	-118	31
-101	-285	238	-121	31
-100	-279	235	-124	31
-99	-274	233	-127	31
-98	-269	230	-130	31
-97	-263	228	-133	31
-96	-258	225	-135	31
-95	-252	223	-138	31
-94	-247	220	-141	31
-93	-242	218	-144	31
-92	-236	215	-147	31
-91	-231	213	-150	31
-90	-226	211	-153	31
-89	-220	208	-156	31
-88	-215	206	-159	31
-86	-209	203	-162	31
-85	-204	201	-165	31
-84	-199	198	-168	31
-83	-193	196	-171	31
-82	-188	193	-174	31
-81	-183	191	-177	31
-80	-177	188	-180	31
-79	-172	186	-183	31
-78	-166	183	-186	31
-77	-161	181	-189	31
-76	-156	179	-192	31
-75	-150	176	-195	31
-74	-145	174	-198	31
-73	-140	171	-201	31
-72	-134	169	-204	31
-71	-129	166	-207	31
-70	-123	164	-210	31
-69	-118	161	-213	31
-68	-113	159	-216	31
-67	-107	156	-219	31
-66	-102	154	-222	31
-65	-97	152	-224	31
-64	-91	149	-227	31
-63	-86	147	-230	31
-62	-80	144	-233	31
-61	-75	142	-236	31
-60	-70	139	-239	31
-59	-64	137	-242	31
-58	-59	134	-245	31
-57	-54	132	-248	31
-56	-48	129	-251	31
-55	-43	127	-254	31
-54	-37	124	-257	31
-53	-32	122	-260	31
-52	-27	120	-263	31
-51	-21	117	-266	31
-50	-16	115	-269	31
-49	-11	112	-272	31
-48	-5	110	-275	31
-47	0	107	-278	31
-45	6	105	-281	31
-44	11	102	-284	31
-43	16	100	-287	31
-42	22	97	-290	31
-41	27	95	-293	31
-40	32	93	-296	31
-39	38	90	-299	31
-38	43	88	-302	31
-37	49	85	-305	31
-36	54	83	-308	31
-35	59	80	-311	31
-34	65	78	-313	31
-33	70	75	-316	31
-32	75	73	-319	31
-31	81	70	-322	31
-30	86	68	-325	31
-29	92	65	-328	31
-28	97	63	-331	31
-27	102	61	-334	31
-26	108	58	-337	31
-25	113	56	-340	31
-24	118	53	-343	31
-23	124	51	-346	31
-22	129	48	-349	31
-21	135	46	-352	31
-20	140	43	-355	31
-19	145	41	-358	31
-18	151	38	-361	31
-17	156	36	-364	31
-16	161	34	-367	31
-15	167	31	-370	31
-14	172	29	-373	31
-13	178	26	-376	31
-12	183	24	-379	31
-11	188	21	-382	31
-10	194	19	-385	31
-9	199	16	-388	31
-8	204	14	-391	31
-7	210	11	-394	31
-6	215	9	-397	31
-4	221	6	-400	31
-28	196	27	-299	31
-77	154	-97	56	31
-79	104	-152	188	31
-44	-39	103	474	31
-50	-279	163	640	31
-42	-306	-23	176	31
7	-92	-42	-216	31
6	35	-278	-176	31
-19	41	-263	-225	31
-12	12	108	-646	31
27	-1	534	-596	31
69	17	846	-382	31
39	82	341	-155	31
4	199	-259	258	31
-31	287	-865	195	31
-92	340	-930	165	31
-116	335	-2	-189	31
-140	268	263	-475	31
-91	145	76	-348	31
5	-110	-34	-363	31
72	-402	-189	94	31
115	-640	131	362	31
135	-730	468	219	31
155	-582	430	157	31
113	-276	296	70	31
111	-58	-21	82	31
77	-47	-223	47	31
-20	7	-162	98	31
-5	33	42	181	31
21	55	670	157	31
27	147	750	85	31
9	181	101	-83	31
-44	214	-490	-126	31
-94	173	-1268	-165	31
-107	117	-1051	-89	31
-80	-7	-52	425	31
-69	-150	32	626	31
-37	-70	81	10	31
6	87	302	-264	31
56	153	208	-13	31
39	140	227	-65	31
-22	79	97	-102	31
6	6	17	0	31
14	-41	-3	100	31
-6	-17	-71	136	31
-49	105	-33	143	31
-64	197	-10	110	31
-40	153	35	50	31
9	117	81	24	31
101	117	140	-150	31
60	-6	110	-286	31
11	-96	55	-222	31
-26	-141	59	-19	31
-93	-332	114	108	31
-45	-436	186	191	31
-6	-400	257	186	31
4	-270	171	-31	31
15	-92	-61	-227	31
16	-36	-216	-192	31
48	86	-450	-110	31
13	208	-310	-301	31
-11	194	69	-185	31
1	174	152	133	31
11	130	284	46	31
3	41	335	-106	31
-39	-34	148	-95	31
-11	-14	-215	7	31
-3	14	-436	-57	31
-20	45	-536	-24	31
-21	102	-448	84	31
-33	124	55	101	31
-44	115	327	95	31
-46	41	268	59	31
-11	-34	49	148	31
17	-4	-24	-27	31
34	161	-91	-137	31
14	286	-264	-79	31
-41	206	-19	-22	31
-39	40	203	120	31
-2	7	201	292	31
4	6	94	363	31
57	-81	-113	-26	31
66	-130	-160	-57	31
31	-368	-170	122	31
69	-565	-171	-11	31
64	-394	-55	41	31
55	-177	-39	163	31
45	-38	8	132	31
58	13	211	-36	31
66	37	426	-175	31
7	43	562	-301	31
-18	59	409	-260	31
-58	114	116	-135	31
-86	179	-102	-125	31
-81	315	1	-21	31
-69	300	145	112	31
-55	93	-190	24	31
-47	-81	-379	-140	31
22	-148	-342	-149	31
23	-144	-335	15	31
-24	-80	-206	-24	31
-14	29	-132	-193	31
-17	76	-77	96	31
8	65	27	459	31
54	-61	126	420	31
85	-147	226	408	31
97	-36	364	127	31
17	28	338	-154	31
-76	47	90	-397	31
-77	82	-70	-502	31
-57	77	-234	-251	31
-18	-26	-364	-365	31
60	-30	-197	64	31
87	161	151	190	31
75	236	297	37	31
27	245	27	204	31
-46	212	-176	-49	31
-80	161	-180	-4	31
-122	93	-149	20	31
-150	-70	26	160	31
-151	-192	34	293	31
-112	-365	-19	62	31
-62	-489	6	-36	31
4	-500	-29	41	31
112	-446	54	-42	31
108	-214	56	-97	31
90	-37	7	-29	31
97	19	-75	-82	31
32	78	-215	-16	31
26	92	-128	-9	31
51	154	13	70	31
43	211	55	146	31
29	181	87	69	31
5	130	89	8	31
-24	54	60	-23	31
-55	45	39	-22	31
-25	100	68	-20	31
-2	103	126	14	31
-40	101	89	87	31
-48	66	88	252	31
0	-10	375	388	31
47	-21	608	320	31
5	-2	445	-97	31
-8	-34	57	-518	31
6	-40	-608	-589	31
-32	39	-837	-295	31
-52	63	-280	-30	31
-55	88	9	98	31
-12	140	-254	395	31
22	136	-495	359	31
31	171	-425	250	31
4	184	-296	115	31
-76	239	28	-280	31
-109	371	481	-521	31
-131	266	505	-365	31
-72	-3	324	-70	31
68	-83	67	-69	31
145	-270	-141	-81	31
189	-580	-53	193	31
184	-537	-31	352	31
115	-497	-14	-268	31
27	-530	142	-445	31
-9	-336	290	212	31
-11	-136	322	143	31
-22	-64	283	-160	31
-16	9	214	-122	31
-16	113	-41	-181	31
0	156	-261	-128	31
28	204	-262	81	31
28	204	-262	81	31
28	202	-255	79	31
28	200	-248	76	31
28	198	-241	74	31
27	196	-234	71	31
27	193	-226	69	31
27	191	-219	66	31
26	189	-212	64	31
26	187	-205	61	31
26	185	-197	59	31
25	182	-190	56	31
25	180	-183	54	31
25	178	-176	51	31
25	176	-169	48	31
24	174	-161	46	31
24	171	-154	43	31
24	169	-147	41	31
23	167	-140	38	31
23	165	-132	36	31
23	163	-125	33	31
22	160	-118	31	31
22	158	-111	28	31
22	156	-103	26	31
22	154	-96	23	31
21	152	-89	20	31
21	149	-82	18	31
21	147	-75	15	31
20	145	-67	13	31
20	143	-60	10	31
20	141	-53	8	31
19	138	-46	5	31
19	136	-38	3	31
19	134	-31	0	31
19	132	-24	-2	31
18	130	-17	-5	31
18	127	-9	-8	31
18	125	-2	-10	31
17	123	5	-13	31
17	121	12	-15	31
17	119	19	-18	31
16	116	27	-20	31
16	114	34	-23	31
16	112	41	-25	31
16	110	48	-28	31
15	108	56	-30	31
15	105	63	-33	31
15	103	70	-35	31
14	101	77	-38	31
14	99	84	-41	31
14	97	92	-43	31
13	94	99	-46	31
13	92	106	-48	31
13	90	113	-51	31
13	88	121	-53	31
12	86	128	-56	31
12	83	135	-58	31
12	81	142	-61	31
11	79	150	-63	31
11	77	157	-66	31
11	75	164	-69	31
10	72	171	-71	31
10	70	178	-74	31
10	68	186	-76	31
10	66	193	-79	31
9	64	200	-81	31
9	61	207	-84	31
9	59	215	-86	31
8	57	222	-89	31
8	55	229	-91	31
8	53	236	-94	31
7	50	244	-97	31
-40	33	329	-261	31
-41	1	196	-127	31
-108	-87	-54	-219	31
-127	-102	-182	-434	31
-115	-39	-32	-365	31
33	191	12	7	31
115	292	36	252	31
-7	112	63	274	31
-167	-101	-79	64	31
-241	-384	-117	-4	31
-22	-346	-34	224	31
234	-32	80	183	31
229	-29	142	204	31
115	-50	135	115	31
115	-5	87	-265	31
191	-25	104	-262	31
163	49	133	-48	31
93	39	211	22	31
28	53	466	-70	31
16	95	635	-176	31
-24	75	462	-140	31
-29	107	-141	-56	31
-10	163	-648	2	31
-105	158	-790	136	31
-80	9	-780	465	31
-53	-81	-564	653	31
-62	-85	-244	244	31
11	-125	-126	120	31
24	-198	19	277	31
24	-198	19	277	31
23	-196	19	273	31
21	-193	19	268	31
20	-190	19	264	31
18	-188	19	259	31
17	-185	19	255	31
15	-182	19	250	31
14	-179	19	246	31
12	-177	19	241	31
10	-174	19	237	31
9	-171	19	232	31
7	-168	19	227	31
6	-166	20	223	31
4	-163	20	218	31
3	-160	20	214	31
1	-157	20	209	31
-1	-155	20	205	31
-2	-152	20	200	31
-4	-149	20	196	31
-5	-147	20	191	31
-7	-144	20	186	31
-8	-141	20	182	31
-10	-138	20	177	31
-12	-136	20	173	31
-13	-133	21	168	31
-15	-130	21	164	31
-16	-127	21	159	31
-18	-125	21	155	31
-19	-122	21	150	31
-21	-119	21	146	31
-23	-116	21	141	31
-24	-114	21	136	31
-26	-111	21	132	31
-27	-108	21	127	31
-29	-106	21	123	31
-30	-103	21	118	31
-32	-100	22	114	31
-33	-97	22	109	31
-35	-95	22	105	31
-37	-92	22	100	31
-38	-89	22	95	31
-40	-86	22	91	31
-41	-84	22	86	31
-43	-81	22	82	31
-44	-78	22	77	31
-46	-75	22	73	31
-48	-73	22	68	31
-49	-70	22	64	31
-51	-67	23	59	31
-52	-65	23	55	31
-54	-62	23	50	31
-55	-59	23	45	31
-57	-56	23	41	31
-59	-54	23	36	31
-60	-51	23	32	31
-62	-48	23	27	31
-63	-45	23	23	31
-65	-43	23	18	31
-66	-40	23	14	31
-68	-37	23	9	31
-70	-34	24	4	31
19	-17	0	62	31
9	11	14	-48	31
-46	80	51	-51	31
-34	110	95	-42	31
-41	120	33	95	31
-44	87	-16	244	31
-64	-57	-71	320	31
-92	-95	-67	208	31
-202	64	63	84	31
-225	179	160	131	31
-240	143	397	44	31
-367	-41	451	-4	31
-188	-338	8	-180	31
288	-396	-381	-487	31
502	-223	-557	-201	31
385	-183	-613	522	31
322	-169	-360	588	31
254	-76	-190	208	31
97	-21	-299	41	31
-16	77	-156	-144	31
-39	142	176	-697	31
-136	67	179	-815	31
-213	-14	103	-113	31
-146	-75	171	-113	31
141	-47	251	-49	31
378	88	271	237	31
40	141	294	18	31
-185	142	361	186	31
-218	164	99	501	31
-422	113	-228	580	31
-292	130	-506	9	31
-35	201	-645	-464	31
140	107	-207	-89	31
201	-70	216	-100	31
203	-156	176	-519	31
331	-89	12	-390	31
173	29	-80	275	31
-186	-42	156	324	31
-364	-232	547	-338	31
-289	-303	558	-562	31
-139	-199	193	256	31
-161	-88	-492	830	31
-188	7	-692	481	31
-164	208	-83	567	31
-297	183	380	786	31
-244	27	320	418	31
509	75	-35	-425	31
1159	219	-496	-698	31
956	11	-688	-779	31
259	-452	-73	-1365	31
37	-316	451	-1281	31
-8	-32	252	-305	31
-325	-169	118	125	31
-154	-190	103	100	31
-137	11	132	606	31
-65	153	188	647	31
257	179	127	217	31
218	75	104	-134	31
79	-47	170	227	31
-67	21	196	557	31
-178	55	184	405	31
-141	90	58	335	31
-22	97	-371	-44	31
-125	-27	-689	-294	31
-191	62	-499	-233	31
-257	290	-133	92	31
-335	504	34	46	31
-249	405	148	-153	31
-160	-131	233	158	31
136	-598	187	161	31
367	-570	119	-239	31
236	-290	-92	-221	31
5	-44	-214	91	31
-70	133	-182	233	31
-132	123	-46	334	31
-165	135	164	247	31
-224	111	300	-58	31
-343	214	325	-286	31
-219	547	-77	-444	31
-134	547	-562	-117	31
-97	134	-639	557	31
156	-487	-427	816	31
210	-722	29	636	31
173	-535	462	41	31
279	-418	634	-267	31
337	-211	668	-155	31
388	-77	361	-201	31
178	47	-208	-63	31
62	169	-390	-21	31
47	166	-74	-118	31
-195	200	-127	-286	31
-241	125	-460	-752	31
-224	77	-462	-613	31
-147	148	-411	379	31
17	266	-49	408	31
-33	236	458	-257	31
-276	113	589	-330	31
-180	89	530	-818	31
145	4	281	-638	31
-145	-150	84	1	31
-332	-396	223	201	31
161	-326	199	271	31
300	-93	-107	-93	31
179	-95	-264	2	31
519	86	-337	196	31
310	132	-335	178	31
-133	68	-54	172	31
-55	93	74	88	31
-168	34	2	186	31
-21	102	42	299	31
143	113	3	346	31
57	103	-32	398	31
-49	68	-112	368	31
-208	-23	-233	385	31
-180	113	-60	46	31
-163	371	259	-454	31
-105	451	179	-186	31
-103	97	-156	345	31
-25	-443	-237	519	31
224	-609	-121	426	31
183	-381	5	-24	31
138	-313	-1	-532	31
274	-242	-75	-288	31
120	-21	-54	-45	31
-191	27	-137	-257	31
-234	133	-161	-575	31
-249	153	217	-812	31
-294	264	264	-204	31
-215	398	83	207	31
-91	208	188	158	31
32	109	147	297	31
93	109	80	92	31
226	77	-23	-95	31
324	-136	-217	209	31
218	-458	-249	420	31
202	-464	-77	381	31
70	-277	118	-45	31
-194	-98	144	-534	31
-55	105	168	-94	31
34	184	202	152	31
-8	88	217	-151	31
102	-138	168	-287	31
128	-226	-42	-472	31
51	-133	-78	-307	31
-7	-104	150	-79	31
-3	33	180	128	31
-41	85	143	262	31
-91	77	-130	106	31
-101	147	-625	174	31
-131	114	-422	241	31
-151	110	-118	168	31
-45	108	-140	44	31
41	120	-77	90	31
29	51	-66	262	31
1	-45	0	287	31
-24	-32	44	223	31
22	4	138	-33	31
79	78	301	-343	31
73	128	431	-226	31
-12	158	436	109	31
-45	133	143	140	31
-38	54	-103	233	31
-74	-91	-526	26	31
-55	-141	-676	-497	31
-67	-48	-12	-265	31
-50	39	237	35	31
-30	195	175	-393	31
-105	173	196	-314	31
-204	6	-91	296	31
-215	-148	-361	679	31
-87	-198	-517	1156	31
49	-21	-282	1109	31
133	84	-90	325	31
117	169	-2	-713	31
-11	256	338	-1608	31
22	214	391	-1368	31
140	158	27	49	31
7	281	-233	198	31
-78	184	59	-298	31
27	-438	261	-1	31
107	-616	305	155	31
104	-449	391	370	31
163	-671	141	58	31
315	-494	-227	-352	31
126	-45	-428	-443	31
-36	-37	-341	-70	31
4	32	-50	105	31
-65	78	54	-112	31
-23	90	59	9	31
-55	202	155	-60	31
-93	189	107	95	31
-67	176	15	186	31
-34	44	1	128	31
4	-58	103	54	31
-60	-23	279	35	31
-40	47	426	220	31
-36	144	398	199	31
-55	201	-2	153	31
-75	246	-507	246	31
-115	218	-525	173	31
-129	112	187	15	31
-143	-119	570	148	31
10	-129	362	98	31
115	205	120	-76	31
135	122	-615	-177	31
150	-294	-854	-333	31
100	-428	-463	-90	31
90	-229	-312	235	31
57	-37	31	226	31
-16	-35	176	357	31
-89	69	116	490	31
-45	197	-29	-18	31
-7	322	-206	-165	31
-23	403	-89	4	31
-12	252	-9	-400	31
-67	21	102	-264	31
0	-437	243	-262	31
73	-580	321	-511	31
44	-135	326	-62	31
77	41	266	182	31
39	93	120	358	31
-42	136	-168	543	31
-103	54	-408	560	31
-199	211	-312	98	31
-291	475	41	-674	31
-350	554	132	-890	31
-174	229	164	-520	31
79	-351	100	32	31
191	-856	-6	143	31
461	-761	136	-57	31
502	-336	139	-155	31
194	-176	58	-57	31
123	44	-49	11	31
-7	52	-136	-42	31
-114	76	-135	128	31
-105	224	-70	218	31
-183	292	-20	186	31
-123	375	-22	167	31
-74	79	4	168	31
2	-175	-58	150	31
28	-17	-17	156	31
46	219	221	247	31
154	105	332	156	31
82	-223	229	13	31
-10	-224	-30	-239	31
-56	-44	-481	-492	31
-110	-50	-440	-334	31
-85	-24	-17	-34	31
-51	6	82	-34	31
1	-42	246	51	31
51	89	388	208	31
-19	85	446	50	31
-88	95	261	-75	31
-65	95	-189	-145	31
-47	-4	-247	0	31
-82	74	-317	65	31
-77	78	-472	150	31
52	112	-457	258	31
87	-41	-139	117	31
87	-41	-139	117	31
87	-41	-139	108	31
87	-41	-139	99	31
88	-41	-138	90	31
88	-42	-138	81	31
88	-42	-137	72	31
89	-42	-137	63	31
89	-42	-136	54	31
89	-43	-136	45	31
90	-43	-135	36	31
90	-43	-135	27	31
90	-43	-135	18	31
91	-44	-134	8	31
91	-44	-134	-1	31
91	-44	-133	-10	31
92	-44	-133	-19	31
92	-45	-132	-28	31
92	-45	-132	-37	31
93	-45	-131	-46	31
93	-45	-131	-55	31
94	-46	-130	-64	31
94	-46	-130	-73	31
94	-46	-130	-82	31
95	-46	-129	-91	31
95	-47	-129	-101	31
95	-47	-128	-110	31
96	-47	-128	-119	31
96	-47	-127	-128	31
96	-48	-127	-137	31
97	-48	-126	-146	31
97	-48	-126	-155	31
97	-48	-126	-164	31
98	-49	-125	-173	31
98	-49	-125	-182	31
98	-49	-124	-191	31
99	-49	-124	-200	31
99	-50	-123	-210	31
99	-50	-123	-219	31
100	-50	-122	-228	31
100	-50	-122	-237	31
101	-51	-121	-246	31
101	-51	-121	-255	31
101	-51	-121	-264	31
102	-51	-120	-273	31
102	-52	-120	-282	31
102	-52	-119	-291	31
103	-52	-119	-300	31
103	-52	-118	-309	31
103	-53	-118	-319	31
104	-53	-117	-328	31
104	-53	-117	-337	31
104	-53	-117	-346	31
105	-54	-116	-355	31
105	-54	-116	-364	31
105	-54	-115	-373	31
106	-54	-115	-382	31
106	-55	-114	-391	31
106	-55	-114	-400	31
107	-55	-113	-409	31
107	-55	-113	-418	31
108	-56	-112	-428	31
44	-143	33	-146	31
-56	-59	65	44	31
-42	247	82	163	31
-138	419	78	95	31
-196	426	-74	-32	31
-135	253	-181	-95	31
-93	-241	-41	-108	31
-68	-596	-2	22	31
-12	-456	-5	29	31
62	-31	77	-12	31
25	-124	105	70	31
60	-358	95	70	31
138	-153	7	110	31
135	-35	-14	24	31
99	1	37	-120	31
29	47	-34	-22	31
21	56	-90	41	31
-42	80	-8	7	31
-82	87	43	59	31
-57	107	47	98	31
-61	161	-2	57	31
-34	165	-72	-39	31
-64	90	-98	-101	31
-105	-35	-64	-27	31
-162	-110	-7	9	31
-159	18	-22	-2	31
-52	97	10	0	31
24	126	63	-2	31
148	206	100	24	31
175	129	120	15	31
55	-12	57	-38	31
31	-150	-22	-84	31
9	-93	-75	-87	31
-11	77	-8	-90	31
21	72	148	-3	31
-7	-76	183	160	31
-21	-203	40	107	31
-22	-54	-114	-24	31
-60	-17	-206	42	31
-100	-82	-167	90	31
-100	14	-62	-30	31
-67	46	-52	-57	31
23	97	-57	126	31
44	20	-105	187	31
-36	-110	-95	-54	31
56	-131	-59	-230	31
154	-63	-89	-148	31
88	21	-32	-112	31
49	-2	92	84	31
-27	94	161	294	31
-56	163	141	94	31
-55	166	137	84	31
-211	127	143	105	31
-199	-66	181	37	31
-42	-163	238	53	31
-44	-150	236	-238	31
79	-79	86	-242	31
208	26	-156	-7	31
98	47	-338	42	31
168	52	-484	112	31
131	-26	-304	-53	31
34	-85	32	-279	31
50	16	44	-106	31
-115	30	4	58	31
-124	-30	-21	28	31
-62	-41	49	50	31
76	-17	67	-14	31
133	-10	0	-5	31
21	-3	71	-29	31
60	35	70	-45	31
93	32	206	57	31
2	44	424	42	31
-113	88	424	55	31
-201	102	171	31	31
-289	77	-175	24	31
-244	-21	-553	146	31
-159	-110	-635	305	31
4	-47	-270	365	31
307	39	-128	307	31
351	63	1	-15	31
189	72	229	-798	31
115	7	87	-817	31
24	-58	-55	27	31
27	-66	3	-39	31
-28	19	11	-191	31
-117	-17	-29	47	31
-44	-150	29	-4	31
-46	-103	80	57	31
38	-70	55	10	31
55	-36	76	84	31
-7	-1	75	128	31
-36	-7	67	75	31
-52	19	75	78	31
-27	17	59	49	31
-37	22	26	65	31
-33	6	-32	30	31
-53	3	-47	49	31
-30	21	9	31	31
-11	17	59	33	31
-17	21	35	24	31
-18	19	-44	12	31
-24	24	-120	-18	31
-13	14	-122	-136	31
-16	17	-79	-192	31
-4	49	-9	-148	31
-14	112	69	100	31
-22	141	87	365	31
-22	89	121	305	31
-11	-8	102	112	31
-11	-8	102	112	31
-11	-9	102	109	31
-12	-11	103	106	31
-12	-13	103	103	31
-13	-14	104	100	31
-14	-16	104	97	31
-14	-18	105	94	31
-15	-19	105	91	31
-16	-21	106	88	31
-16	-23	106	85	31
-17	-24	107	82	31
-18	-26	107	79	31
-18	-28	108	76	31
-19	-29	108	73	31
-20	-31	109	70	31
-20	-33	109	67	31
-21	-34	110	64	31
-22	-36	110	61	31
-22	-38	111	58	31
-23	-39	111	55	31
-24	-41	112	52	31
-24	-43	112	49	31
-25	-45	113	46	31
-25	-46	113	43	31
-26	-48	114	40	31
-27	-50	114	37	31
-27	-51	115	34	31
-28	-53	115	31	31
-29	-55	116	28	31
-29	-56	116	25	31
-30	-58	117	21	31
-31	-60	117	18	31
-31	-61	118	15	31
-32	-63	118	12	31
-33	-65	119	9	31
-33	-66	119	6	31
-34	-68	120	3	31
-35	-70	120	0	31
-35	-71	121	-3	31
-36	-73	121	-6	31
-37	-75	122	-9	31
-37	-77	122	-12	31
-38	-78	123	-15	31
-38	-80	123	-18	31
-39	-82	124	-21	31
-40	-83	124	-24	31
-40	-85	125	-27	31
-41	-87	125	-30	31
-42	-88	126	-33	31
-42	-90	126	-36	31
-43	-92	127	-39	31
-44	-93	127	-42	31
-44	-95	128	-45	31
-45	-97	128	-48	31
-46	-98	129	-51	31
-46	-100	129	-54	31
-47	-102	130	-57	31
-48	-103	130	-60	31
-48	-105	131	-63	31
-49	-107	131	-66	31
-50	-109	132	-70	31
-20	17	165	-173	31
-40	108	97	-266	31
-30	173	18	-272	31
-34	188	-128	-224	31
-52	99	-264	-39	31
-26	-97	-188	118	31
-37	-179	34	-42	31
-21	12	41	39	31
-33	72	-13	277	31
-21	21	18	38	31
-4	-8	-46	-189	31
19	-104	-49	-44	31
38	-36	54	221	31
15	59	142	324	31
-9	89	186	-62	31
-22	100	180	-324	31
-22	19	-42	-63	31
-31	-73	-204	211	31
-1	-100	-219	202	31
13	21	-221	99	31
-3	74	-145	77	31
-4	-16	-44	65	31
-13	-52	45	-16	31
-4	-59	97	-79	31
8	33	178	-85	31
-6	103	141	-54	31
-17	121	46	4	31
-30	126	-48	15	31
-48	24	-161	18	31
-42	-100	-157	-4	31
-21	-147	-54	-36	31
-2	-67	50	-76	31
19	-57	19	-94	31
31	-50	17	16	31
-2	1	44	140	31
-31	-21	4	57	31
43	-2	-12	-6	31
95	5	-27	38	31
53	11	-13	-11	31
73	26	31	-55	31
94	24	55	-205	31
10	19	50	-230	31
-17	15	47	-116	31
-17	20	39	-27	31
-68	57	38	272	31
-46	154	123	381	31
-4	193	184	142	31
-7	148	132	-24	31
-60	50	83	-79	31
-19	-113	-23	-79	31
16	-211	-153	-102	31
-84	-34	-136	-71	31
-72	278	-91	-49	31
49	401	-2	1	31
95	77	57	272	31
70	-623	-95	224	31
153	-626	-146	29	31
120	-16	-21	27	31
4	46	-24	-102	31
-31	30	-18	-52	31
-92	24	29	76	31
-80	-60	25	62	31
-67	120	37	-51	31
-47	-21	-19	-175	31
-16	-198	-71	-82	31
27	-44	-85	-23	31
24	173	-31	-36	31
-50	255	41	-37	31
-49	128	39	-59	31
-39	-77	71	-37	31
-2	-403	55	-9	31
39	-335	18	11	31
29	-19	-36	20	31
23	52	-87	45	31
30	212	-42	47	31
5	308	16	19	31
-104	192	68	-1	31
-146	-44	91	-44	31
-34	-221	78	-42	31
129	-149	31	-2	31
122	-46	-29	16	31
-21	131	-45	11	31
-62	463	-36	2	31
-113	618	-41	-9	31
-90	383	-47	-13	31
-4	-257	-46	1	31
78	-873	19	-9	31
137	-480	98	-5	31
59	206	74	7	31
12	219	37	27	31
-4	-12	-20	53	31
1	-363	-40	57	31
-11	36	6	96	31
-127	586	38	126	31
-205	405	37	113	31
-153	125	-4	73	31
-14	-423	-54	-66	31
171	-655	-46	-266	31
299	-464	12	-280	31
211	-259	15	-122	31
198	-80	4	-77	31
183	-42	2	-22	31
-24	24	-13	49	31
-27	21	-17	23	31
-57	34	43	-37	31
-92	42	73	-27	31
-38	34	14	36	31
-64	56	-37	-8	31
-29	70	-126	-2	31
-36	109	-105	98	31
-23	114	-12	98	31
-27	130	9	-14	31
-48	134	42	37	31
-41	136	46	91	31
-56	98	39	-15	31
-31	43	24	-52	31
-12	37	11	-44	31
0	47	-13	-1	31
-13	65	-87	30	31
-16	52	-105	49	31
-18	50	-41	76	31
-27	47	51	4	31
-18	35	146	-82	31
-32	28	210	-110	31
-35	11	136	-123	31
-32	11	7	-82	31
-21	7	-93	83	31
-13	2	-176	296	31
5	6	-159	349	31
18	16	-208	144	31
14	15	-105	-62	31
23	7	81	-138	31
16	4	22	-161	31
7	-7	57	-111	31
4	-26	39	-125	31
11	-40	-39	-40	31
16	-34	-24	56	31
6	-33	-40	-37	31
-1	-35	29	-48	31
-2	-25	75	195	31
-9	-42	24	230	31
-10	-64	38	32	31
4	-49	82	117	31
-2	-36	67	103	31
-6	-40	22	122	31
-7	-32	-102	134	31
-6	-11	-167	-133	31
1	4	-112	-372	31
-2	6	29	-443	31
-4	5	146	-182	31
4	11	163	-32	31
9	37	223	-12	31
27	95	191	56	31
63	135	42	15	31
14	78	-83	99	31
-40	-29	-140	65	31
-7	-130	-218	-5	31
2	-141	-297	59	31
23	-34	-153	55	31
23	-34	-153	55	31
23	-34	-150	53	31
23	-33	-146	50	31
22	-33	-143	47	31
22	-32	-139	44	31
21	-31	-135	41	31
21	-31	-132	39	31
20	-30	-128	36	31
20	-29	-125	33	31
19	-29	-121	30	31
19	-28	-117	27	31
18	-27	-114	25	31
18	-27	-110	22	31
17	-26	-106	19	31
17	-25	-103	16	31
16	-25	-99	13	31
16	-24	-96	10	31
15	-23	-92	8	31
15	-23	-88	5	31
14	-22	-85	2	31
14	-21	-81	-1	31
13	-21	-78	-4	31
13	-20	-74	-6	31
12	-20	-70	-9	31
12	-19	-67	-12	31
11	-18	-63	-15	31
11	-18	-59	-18	31
10	-17	-56	-21	31
10	-16	-52	-23	31
9	-16	-49	-26	31
9	-15	-45	-29	31
9	-14	-41	-32	31
8	-14	-38	-35	31
8	-13	-34	-37	31
7	-12	-31	-40	31
7	-12	-27	-43	31
6	-11	-23	-46	31
6	-10	-20	-49	31
5	-10	-16	-52	31
5	-9	-12	-54	31
4	-8	-9	-57	31
4	-8	-5	-60	31
3	-7	-2	-63	31
3	-7	2	-66	31
2	-6	6	-68	31
2	-5	9	-71	31
1	-5	13	-74	31
1	-4	16	-77	31
0	-3	20	-80	31
0	-3	24	-83	31
-1	-2	27	-85	31
-1	-1	31	-88	31
-2	-1	35	-91	31
-2	0	38	-94	31
-3	1	42	-97	31
-3	1	45	-99	31
-4	2	49	-102	31
-4	3	53	-105	31
-5	3	56	-108	31
-5	4	60	-111	31
-6	5	64	-114	31
-10	39	112	36	31
-14	4	145	56	31
-12	16	151	-56	31
12	13	54	-77	31
2	-4	-52	-85	31
-15	-4	-232	-36	31
9	-8	-352	20	31
11	12	-197	69	31
9	15	27	118	31
17	17	5	82	31
-4	7	-10	8	31
-12	-2	69	19	31
-4	21	129	6	31
-2	32	189	-42	31
-7	29	107	-25	31
-12	60	30	-58	31
1	112	87	-222	31
34	125	178	-183	31
48	93	100	59	31
29	61	5	223	31
26	41	-149	300	31
-7	-17	-409	80	31
-50	-117	-344	65	31
-63	-168	-87	82	31
-65	-139	48	-78	31
-37	-94	50	-45	31
-3	-34	100	-67	31
-9	70	8	-16	31
-26	195	-146	3	31
-27	274	-46	-21	31
-29	244	83	9	31
-16	54	78	16	31
9	-114	9	-12	31
39	-128	4	-23	31
81	-243	25	-12	31
85	-350	88	-18	31
39	-258	107	47	31
9	-145	74	26	31
24	-110	26	-20	31
24	-110	26	-20	31
24	-110	28	-18	31
24	-109	31	-15	31
24	-108	34	-12	31
23	-107	37	-9	31
23	-106	39	-6	31
23	-105	42	-3	31
23	-105	45	0	31
22	-104	48	3	31
22	-103	51	6	31
22	-102	53	9	31
22	-101	56	12	31
21	-100	59	15	31
21	-100	62	18	31
21	-99	64	21	31
21	-98	67	24	31
20	-97	70	27	31
20	-96	73	30	31
20	-95	76	33	31
20	-95	78	36	31
19	-94	81	39	31
19	-93	84	41	31
19	-92	87	44	31
19	-91	90	47	31
18	-90	92	50	31
18	-90	95	53	31
18	-89	98	56	31
18	-88	101	59	31
17	-87	103	62	31
17	-86	106	65	31
17	-85	109	68	31
17	-85	112	71	31
16	-84	115	74	31
16	-83	117	77	31
16	-82	120	80	31
16	-81	123	83	31
15	-80	126	86	31
15	-80	128	89	31
15	-79	131	92	31
15	-78	134	95	31
14	-77	137	98	31
14	-76	140	100	31
14	-75	142	103	31
14	-75	145	106	31
13	-74	148	109	31
13	-73	151	112	31
13	-72	154	115	31
13	-71	156	118	31
12	-70	159	121	31
12	-70	162	124	31
12	-69	165	127	31
12	-68	167	130	31
11	-67	170	133	31
11	-66	173	136	31
11	-65	176	139	31
11	-65	179	142	31
10	-64	181	145	31
10	-63	184	148	31
10	-62	187	151	31
10	-61	190	154	31
9	-60	193	157	31
-50	64	141	-19	31
-92	135	-36	25	31
-132	232	-94	42	31
-115	52	-153	9	31
-75	-178	-318	-2	31
-59	-114	-240	-34	31
-31	125	-87	9	31
-42	210	-80	7	31
-89	297	-11	-85	31
-96	327	25	-85	31
-125	278	80	61	31
-132	226	136	155	31
-42	366	-1	74	31
26	518	-128	36	31
77	-195	-125	100	31
167	-730	-11	-16	31
226	-383	127	-130	31
140	-107	141	-134	31
-6	-14	183	-92	31
-66	69	227	-34	31
-97	158	93	81	31
-97	229	-37	105	31
-72	305	-208	-96	31
-21	98	-280	-241	31
41	-135	-141	-219	31
50	-6	-25	69	31
51	-87	104	226	31
-41	36	193	151	31
-179	491	184	9	31
-210	603	84	-104	31
-168	515	-242	-84	31
-51	87	-547	-108	31
120	-902	-446	24	31
297	-1172	-112	155	31
335	-462	121	133	31
193	-274	227	55	31
67	-76	204	72	31
-2	125	70	87	31
-43	21	-140	9	31
-54	158	-252	-36	31
-42	128	-81	-90	31
-44	278	81	-27	31
-39	343	122	-70	31
12	233	130	-110	31
28	122	117	-55	31
10	-43	85	-62	31
-24	80	70	-65	31
-72	17	67	-78	31
-107	99	-16	-85	31
-163	509	-82	-129	31
-163	456	95	-117	31
-32	-169	310	-15	31
84	-750	292	142	31
156	-586	234	274	31
119	-97	30	180	31
2	-13	-184	22	31
9	-226	-206	113	31
25	-245	-154	160	31
-36	-26	-6	-26	31
-89	79	54	-123	31
-88	105	-52	-98	31
-49	-31	-14	9	31
31	-363	1	130	31
88	-353	-262	149	31
56	-11	-234	135	31
12	52	52	138	31
-28	46	120	29	31
-19	154	31	-181	31
-12	149	-69	-226	31
-12	149	-69	-226	31
-12	148	-65	-224	31
-12	146	-61	-222	31
-12	144	-57	-220	31
-13	142	-53	-218	31
-13	140	-48	-216	31
-13	138	-44	-214	31
-13	136	-40	-212	31
-14	134	-36	-210	31
-14	132	-32	-208	31
-14	130	-27	-206	31
-14	128	-23	-204	31
-15	127	-19	-202	31
-15	125	-15	-200	31
-15	123	-11	-198	31
-16	121	-6	-196	31
-16	119	-2	-194	31
-16	117	2	-192	31
-16	115	6	-190	31
-17	113	10	-188	31
-17	111	15	-186	31
-17	109	19	-184	31
-17	107	23	-182	31
-18	105	27	-180	31
-18	104	31	-178	31
-18	102	36	-176	31
-19	100	40	-174	31
-19	98	44	-172	31
-19	96	48	-170	31
-19	94	52	-168	31
-20	92	57	-166	31
-20	90	61	-164	31
-20	88	65	-162	31
-20	86	69	-160	31
-21	84	73	-158	31
-21	82	78	-156	31
-21	81	82	-154	31
-22	79	86	-152	31
-22	77	90	-150	31
-22	75	94	-148	31
-22	73	99	-146	31
-23	71	103	-144	31
-23	69	107	-142	31
-23	67	111	-140	31
-23	65	115	-138	31
-24	63	120	-136	31
-24	61	124	-134	31
-24	60	128	-132	31
-25	58	132	-130	31
-25	56	136	-128	31
-25	54	141	-126	31
-25	52	145	-124	31
-26	50	149	-122	31
-26	48	153	-120	31
-26	46	157	-118	31
-26	44	162	-116	31
-27	42	166	-114	31
-27	40	170	-112	31
-27	38	174	-110	31
-28	37	178	-108	31
-28	35	183	-106	31
-28	33	187	-104	31
-28	31	191	-102	31
-29	29	195	-100	31
-29	27	199	-98	31
-29	25	204	-96	31
-29	23	208	-94	31
-30	21	212	-92	31
-30	19	216	-90	31
-30	17	220	-88	31
-31	15	225	-86	31
-4	7	164	-113	31
31	42	-35	-60	31
27	54	-181	79	31
26	83	-209	317	31
6	153	-348	391	31
-26	216	-355	125	31
-22	195	-113	64	31
-43	26	-60	-65	31
-71	-194	-37	-58	31
-80	-343	-112	208	31
-55	-241	-225	91	31
-32	-75	-70	-27	31
-22	-83	-35	-155	31
41	-55	85	-191	31
17	149	221	-85	31
-39	422	170	-15	31
-34	626	159	50	31
-48	674	201	24	31
-21	370	288	163	31
-13	-99	221	-59	31
-84	-560	56	-279	31
-64	-1153	-153	-84	31
56	-1025	-380	-128	31
38	-308	-437	-151	31
4	-39	-219	-82	31
97	153	-7	36	31
107	-57	22	100	31
102	-502	32	32	31
140	-233	2	18	31
95	176	89	-1	31
24	308	150	-5	31
-25	325	78	40	31
-59	208	11	189	31
-40	-45	-14	242	31
5	-95	70	32	31
-20	39	89	-59	31
-38	62	106	12	31
-11	166	105	102	31
-2	165	-9	201	31
-21	60	-78	237	31
-8	65	-112	219	31
34	54	-91	-241	31
1	57	-9	-668	31
0	46	26	-501	31
26	57	117	-323	31
23	93	204	-215	31
4	92	71	-67	31
-34	64	-115	153	31
-46	19	-214	292	31
-69	-12	-165	310	31
-59	9	-55	302	31
-42	40	24	133	31
-39	12	70	105	31
-24	22	146	292	31
-11	38	416	-27	31
49	37	545	-405	31
69	50	382	-166	31
31	27	1	-84	31
2	-8	-568	-87	31
18	-37	-793	-4	31
15	-39	-467	-42	31
-7	-24	-75	-57	31
16	39	16	-37	31
22	133	90	57	31
10	168	184	155	31
-32	152	146	213	31
-62	119	69	47	31
-69	40	-35	-131	31
-99	-97	22	-11	31
-70	-229	162	102	31
27	-292	195	-18	31
80	-196	47	-173	31
50	-81	-94	-113	31
59	-47	-98	-37	31
54	-7	-129	14	31
