File Name: not saved
Channel 1: 'EMG 1', 9281 values, raw ADC, no filters.
Channel 2: 'EMG 2', 9281 values, raw ADC, no filters.
Channel 3: 'EMG 3', 9281 values, raw ADC, no filters.
Channel 4: 'EMG 4', 9281 values, raw ADC, no filters.
Digitals combined (event=16, d=8, c=4, b=2, a=1): 9281 values, .

-6	17	-3	6	31
327	-21	-14	-5	31
-39	-7	-14	-24	31
-74	7	13	5	31
-183	58	16	19	31
-67	13	4	14	31
-143	41	-1	16	31
0	10	1	20	31
54	-12	6	20	31
-102	103	-2	6	31
-108	401	-6	-2	31
-82	442	-9	-9	31
-41	-113	-19	-2	31
-109	-390	-14	4	31
-170	-159	-13	-14	31
-291	204	-4	-10	31
-274	639	12	26	31
-80	544	14	29	31
171	-355	-12	-12	31
505	-780	-21	-28	31
128	-484	11	-4	31
-208	-446	16	-4	31
29	-315	10	1	31
-14	33	11	26	31
109	228	11	28	31
34	99	3	28	31
138	-130	-1	18	31
357	-26	1	-17	31
271	-8	-1	-37	31
181	32	-7	-25	31
-327	137	2	-6	31
-378	65	21	14	31
-121	-6	11	29	31
-65	53	-6	17	31
25	160	-26	-30	31
-34	153	-32	-69	31
-128	418	-3	-30	31
-129	741	2	7	31
-146	328	6	7	31
-27	-548	7	2	31
109	-584	-11	-10	31
110	-257	-6	-7	31
-57	-323	-12	-9	31
-127	-57	-12	0	31
-57	-131	-5	12	31
-68	-194	-6	10	31
163	-50	1	11	31
137	-214	10	21	31
-62	-9	22	37	31
26	173	17	24	31
107	255	10	0	31
127	142	-2	-9	31
-2	19	-22	-15	31
-124	96	-19	-19	31
-95	72	1	-10	31
136	226	14	6	31
340	80	7	-7	31
241	-136	0	-2	31
-55	-158	-6	-2	31
-338	-93	-5	-10	31
-466	195	-3	4	31
-328	379	-11	-6	31
44	585	-1	6	31
178	133	-1	2	31
-98	-431	-11	-6	31
-103	44	-1	11	31
387	287	12	23	31
636	-68	6	18	31
197	-322	-8	-13	31
-190	-409	-12	-22	31
-60	-308	-2	6	31
18	-224	2	3	31
148	-98	-2	-27	31
199	145	7	-2	31
21	384	2	6	31
-91	631	2	-2	31
-158	411	12	12	31
-260	-453	-1	9	31
-220	-1081	-4	14	31
44	-624	10	11	31
264	-68	6	6	31
129	-34	1	19	31
-120	62	9	41	31
16	-4	-4	26	31
-6	77	-9	-6	31
-166	272	-8	-23	31
-154	174	-6	-37	31
-274	38	-6	-31	31
-444	132	-16	-28	31
-445	222	-13	-31	31
-117	35	-7	-12	31
111	47	0	2	31
281	81	-4	-2	31
344	-73	-1	23	31
92	25	10	42	31
168	203	3	4	31
174	236	2	-14	31
186	422	3	-5	31
330	441	1	-1	31
208	-241	5	6	31
94	-707	8	1	31
-108	-376	4	3	31
-127	-165	8	16	31
-62	-272	-14	-14	31
-152	-148	-23	-37	31
-194	91	4	-1	31
-126	119	-1	4	31
-66	98	-3	-1	31
-130	154	9	7	31
-122	47	7	7	31
-211	-44	-27	-16	31
-69	-13	-28	-22	31
236	-42	17	18	31
48	16	17	17	31
226	270	11	9	31
333	525	2	-2	31
-39	672	-5	-12	31
-261	580	5	9	31
-352	-128	11	17	31
56	-704	4	9	31
102	-793	-19	-16	31
-46	-731	-29	-16	31
83	-285	-17	12	31
304	-83	15	33	31
279	-66	17	11	31
5	26	2	-14	31
153	-41	-3	-27	31
-48	75	-12	-27	31
-77	105	18	30	31
-171	169	11	21	31
-317	394	-11	-12	31
-100	245	-10	-14	31
-218	-93	-28	-36	31
-117	-157	-22	-35	31
174	47	25	26	31
165	136	49	78	31
-65	-88	7	33	31
-114	-163	-5	9	31
-171	84	-2	2	31
-216	107	-9	-1	31
65	64	-3	4	31
494	76	1	-20	31
444	29	7	1	31
112	24	5	16	31
-1	-84	6	16	31
-149	-35	-2	20	31
-144	222	-11	6	31
-66	526	4	-16	31
24	342	14	-23	31
-18	-142	-16	-37	31
-12	201	-16	-31	31
111	173	1	-7	31
19	-821	-20	-17	31
-34	-745	-11	-1	31
81	-249	2	7	31
206	-333	-7	-7	31
-50	-32	-11	-12	31
-194	294	-14	-50	31
39	431	-11	-39	31
-22	125	11	15	31
-99	-63	22	26	31
100	405	31	36	31
33	249	19	36	31
-161	-350	-1	25	31
-210	-394	1	23	31
-284	70	-20	-12	31
-184	199	-27	-21	31
-57	74	-16	-9	31
-31	-5	-8	-17	31
174	-321	6	-4	31
404	-191	29	20	31
285	65	22	22	31
141	63	4	21	31
70	133	4	24	31
-76	-69	1	19	31
-132	-231	0	1	31
-202	-241	-9	-7	31
-138	-183	-4	3	31
41	186	-8	-7	31
32	680	-20	-11	31
-223	502	-16	3	31
-383	-332	2	19	31
-11	-309	27	10	31
498	268	22	-14	31
380	588	6	-23	31
40	601	-7	-17	31
79	-127	-19	-11	31
44	-552	-13	-19	31
-39	-533	-2	3	31
-22	-550	-11	5	31
-64	-214	-28	-32	31
-70	-153	-39	-65	31
-127	-146	5	-16	31
-219	36	43	55	31
-473	0	2	16	31
-783	69	-12	13	31
-605	-70	-17	25	31
196	-110	-7	22	31
1095	227	44	63	31
805	236	31	45	31
100	239	-7	1	31
235	173	-16	-31	31
103	-22	-20	-31	31
-222	10	-8	4	31
-246	224	13	26	31
-185	517	22	35	31
75	26	17	-2	31
287	-568	-11	-60	31
95	-345	-14	-54	31
74	-105	-10	-24	31
42	52	-18	-41	31
-189	123	-16	-50	31
-297	244	-9	-17	31
-461	628	12	19	31
-145	652	18	40	31
170	-43	12	43	31
360	-651	-6	12	31
224	-445	-9	8	31
-30	-213	12	30	31
321	-196	11	14	31
-84	-52	1	1	31
-465	77	2	-1	31
-448	379	-17	-34	31
-244	448	-26	-30	31
620	-65	-17	-13	31
456	-538	-20	-22	31
24	-376	4	-6	31
39	-57	6	-5	31
-238	54	15	30	31
-228	124	34	46	31
-282	-115	8	17	31
-122	-232	7	27	31
335	-166	7	14	31
382	101	-10	14	31
91	367	-14	-2	31
-160	475	-22	-46	31
-262	576	-22	-31	31
-321	-149	-13	-1	31
132	-752	-2	0	31
281	-598	6	2	31
45	-414	6	22	31
-28	24	-2	8	31
-261	490	-16	-29	31
-244	495	-22	-36	31
-283	570	-6	-12	31
-95	710	34	39	31
177	595	25	51	31
112	130	-5	19	31
209	-766	-14	-11	31
-40	-802	-23	-1	31
98	-219	22	49	31
512	-148	34	32	31
343	-282	-1	-12	31
237	-302	-13	-52	31
190	-173	5	-41	31
79	37	27	12	31
-85	434	3	2	31
-91	557	-1	-4	31
-110	264	1	-3	31
-138	-118	1	5	31
-103	-394	4	24	31
-282	-219	-7	13	31
-295	-80	-16	-24	31
-54	-238	-27	-27	31
180	-179	-14	6	31
94	-261	-10	-14	31
-447	-283	-14	-16	31
-477	-22	-1	-14	31
125	102	27	18	31
144	303	38	62	31
-103	113	14	42	31
-42	79	-4	46	31
19	495	-22	16	31
-32	570	-36	-56	31
-108	569	-36	-112	31
126	558	-6	-94	31
46	260	26	-16	31
-111	-176	6	-12	31
388	-84	-2	-9	31
219	-496	0	-11	31
-42	-894	7	-6	31
103	-446	26	36	31
79	-809	28	60	31
237	-492	31	65	31
64	41	-1	19	31
43	26	-15	1	31
65	348	-4	8	31
-141	148	-10	1	31
-37	393	-12	-5	31
-132	615	-6	16	31
-155	360	-4	28	31
-202	163	-16	-2	31
-16	103	-4	-26	31
200	247	4	-21	31
-136	305	-8	-11	31
-438	741	-27	-14	31
-309	158	-20	2	31
-112	-1110	-5	-2	31
-283	-967	6	-15	31
47	-765	17	4	31
156	-557	2	16	31
133	-2	-11	-19	31
376	-13	14	0	31
-240	72	35	39	31
13	113	14	5	31
459	421	29	22	31
273	600	33	13	31
612	575	-7	-11	31
155	1446	-16	6	31
-87	886	-19	26	31
172	-828	-11	59	31
98	-808	-6	47	31
-67	36	-9	-12	31
-296	-58	-7	-74	31
21	-656	8	-68	31
114	-791	9	-70	31
-60	-361	-31	-91	31
-314	-69	-22	-30	31
-400	-70	-9	-2	31
117	-74	-36	-24	31
27	-216	-42	-29	31
-282	-203	-11	5	31
-84	-143	31	59	31
135	66	27	67	31
184	183	26	48	31
-82	232	-4	1	31
6	290	-34	-20	31
146	115	-12	17	31
94	64	1	42	31
-36	-125	22	30	31
-151	-56	31	-16	31
-10	182	7	-64	31
-142	250	-7	-95	31
46	103	-22	-53	31
89	-92	-19	26	31
14	146	9	50	31
78	357	14	49	31
-207	523	17	37	31
-191	474	-3	12	31
-81	116	-16	22	31
146	-424	18	61	31
-69	-350	29	72	31
-230	191	27	34	31
-129	-75	-11	-16	31
-363	265	-39	-49	31
-198	578	-7	-18	31
310	-260	6	11	31
631	-591	18	7	31
360	-564	69	32	31
6	-340	80	19	31
-52	31	42	-11	31
36	100	-1	-31	31
20	218	-11	-33	31
-250	181	-27	-30	31
-438	-157	-91	-62	31
95	-270	-107	-79	31
474	348	-96	-41	31
266	750	-70	12	31
64	273	-21	23	31
-37	-507	16	54	31
28	-701	28	72	31
9	-338	19	20	31
40	-325	17	-16	31
-159	-150	7	-40	31
-146	-47	-22	-47	31
-105	-74	-16	-5	31
-38	85	54	24	31
170	148	119	-24	31
-85	487	115	-44	31
-79	546	69	-14	31
-73	246	24	-6	31
8	292	-3	17	31
-24	318	-50	6	31
-261	-87	-120	-13	31
-91	-453	-74	6	31
32	-715	-39	0	31
183	-731	-30	26	31
26	-468	44	80	31
-176	-242	91	73	31
-52	17	97	37	31
110	-226	2	17	31
215	-100	-90	19	31
22	283	-127	36	31
-199	174	-122	-14	31
-204	272	-86	-61	31
160	190	-70	-60	31
114	495	0	-65	31
-156	793	61	-42	31
-131	111	49	-29	31
-21	-353	70	13	31
235	-8	52	52	31
110	160	-1	54	31
89	37	46	74	31
110	160	141	52	31
34	74	202	17	31
63	-167	108	-39	31
-11	-287	-1	-50	31
-148	-203	-24	-44	31
-299	-60	-83	-53	31
-228	-150	-134	-7	31
-116	-239	-124	4	31
-33	-181	-41	13	31
92	-103	-57	-6	31
232	-262	-95	-2	31
123	-361	-20	37	31
-108	-3	-14	31	31
-148	672	-17	26	31
-305	1115	57	14	31
-254	732	176	6	31
190	434	176	-10	31
590	375	101	-9	31
479	-245	63	6	31
84	-454	-80	8	31
16	-444	-203	6	31
-118	-601	-138	17	31
-36	-611	-81	24	31
102	-550	-186	-11	31
6	-75	-184	-42	31
-7	323	-56	-60	31
-104	641	-39	-34	31
-87	603	2	54	31
41	55	187	83	31
103	201	339	22	31
-92	491	355	-84	31
-208	-49	363	-52	31
226	-550	403	16	31
211	-388	297	-43	31
-187	-219	79	-50	31
-231	-510	-158	-98	31
-287	-757	-428	-19	31
-17	-448	-605	115	31
192	-93	-525	80	31
62	117	-327	48	31
107	427	-186	-34	31
53	437	-8	-47	31
70	497	144	52	31
120	768	267	107	31
37	755	506	45	31
-102	521	582	-9	31
-267	209	312	-41	31
-209	-333	21	-83	31
-129	-917	-289	-102	31
-24	-984	-616	-87	31
47	-783	-742	-29	31
37	-389	-600	-65	31
-25	-16	-280	-36	31
-102	-22	-39	-45	31
-84	56	65	-69	31
52	-7	120	32	31
55	-108	187	87	31
-68	104	129	113	31
-70	537	25	71	31
9	885	-19	37	31
281	485	36	94	31
268	-82	108	150	31
157	-32	100	137	31
203	186	126	60	31
55	241	117	-20	31
-21	142	56	19	31
-67	-36	16	32	31
-119	-193	150	-60	31
-149	-374	274	-118	31
-119	-332	426	-116	31
80	-201	583	-80	31
127	-108	350	-81	31
39	5	-5	-60	31
-46	-18	-52	-134	31
-233	19	35	-119	31
-219	17	-135	-6	31
-177	-67	-290	-7	31
-208	-52	-26	75	31
-126	87	272	128	31
-100	341	170	140	31
176	479	11	146	31
388	442	19	141	31
289	352	-143	116	31
108	207	-608	85	31
-229	-102	-979	66	31
-315	-354	-773	64	31
-68	-348	-514	96	31
111	-353	-242	-48	31
68	-367	229	-286	31
163	-290	592	-410	31
179	-115	662	-386	31
-107	-114	219	-184	31
-237	-244	14	9	31
-123	-103	15	22	31
97	-117	-159	109	31
103	-133	-178	218	31
-11	-39	-135	206	31
-15	-28	-197	167	31
6	59	-406	151	31
2	-17	-458	88	31
11	7	-204	-83	31
101	128	402	-127	31
183	178	956	-119	31
137	234	836	-161	31
55	251	524	-145	31
27	439	401	-155	31
104	656	143	35	31
145	615	-99	166	31
-36	406	21	50	31
-160	151	132	26	31
-264	-246	-229	-87	31
-271	-602	-489	-84	31
-113	-557	-395	34	31
-118	-87	-316	149	31
-107	232	-125	254	31
107	74	55	107	31
344	142	67	-54	31
257	-126	42	-122	31
66	-735	22	-101	31
-27	-376	113	-75	31
-224	-302	107	-75	31
-234	-409	-10	-43	31
-226	-37	-30	-48	31
-209	-186	-67	-84	31
80	-174	-42	9	31
162	-17	54	98	31
60	152	184	56	31
-1	353	128	57	31
29	356	-182	54	31
58	467	-345	69	31
-72	618	-315	90	31
-98	996	-216	98	31
52	816	-58	79	31
196	-210	181	111	31
122	-589	193	179	31
60	-419	97	-14	31
-34	-489	122	-211	31
-89	-411	60	-142	31
26	-463	16	-67	31
62	-479	-102	-49	31
151	-261	-74	1	31
166	-205	83	4	31
230	-15	29	-40	31
274	136	93	-120	31
131	120	219	-92	31
117	166	113	-11	31
65	211	35	-43	31
-402	109	16	-37	31
-774	72	-95	-28	31
-277	47	-178	33	31
-129	-47	-241	68	31
-376	39	-219	60	31
-108	52	-46	53	31
-11	138	155	31	31
189	-27	173	52	31
107	-11	13	32	31
-63	698	-50	49	31
16	343	-84	35	31
-65	-594	-39	13	31
94	-531	13	30	31
91	-134	-26	-17	31
-19	64	-27	-46	31
-40	141	-90	-63	31
135	101	-80	-50	31
352	73	13	-1	31
111	190	75	-2	31
-215	110	148	0	31
-395	-136	187	39	31
-289	79	-14	11	31
19	312	-242	12	31
273	78	-236	24	31
173	-323	-160	-15	31
224	-363	26	6	31
487	49	169	46	31
213	-22	143	57	31
-32	-273	40	29	31
-107	-196	14	18	31
-107	88	51	-25	31
35	505	24	-26	31
3	441	6	28	31
59	-148	4	14	31
151	-421	-11	55	31
39	-193	-72	20	31
-19	-6	-11	-39	31
-237	270	76	-98	31
-499	55	66	-98	31
-502	-392	118	-11	31
-380	-447	124	-21	31
-74	-397	49	6	31
230	-107	-20	36	31
412	6	-11	63	31
426	-201	-13	52	31
142	-125	-57	11	31
-146	290	-59	-29	31
-138	535	-44	-46	31
216	799	-11	1	31
446	667	-30	-41	31
-65	203	-39	-53	31
-213	539	-39	-31	31
47	801	-42	-50	31
-176	-11	27	21	31
41	-294	57	88	31
141	366	36	62	31
47	-294	-1	47	31
171	-1138	-34	18	31
-5	-773	-47	-40	31
32	-458	1	-4	31
-1	-238	21	-5	31
-189	-279	-25	-92	31
-92	-226	30	-69	31
-53	72	69	15	31
-63	193	30	41	31
-52	386	-6	9	31
-117	302	-4	19	31
-123	221	34	62	31
-119	260	57	30	31
-124	-136	67	17	31
-87	-578	-16	21	31
44	-524	-111	-5	31
0	-242	-192	-1	31
-158	-24	-204	-6	31
-22	155	-80	5	31
296	181	34	1	31
497	291	198	14	31
144	287	225	47	31
-158	43	79	-24	31
-83	-39	-12	-49	31
-124	143	-120	-19	31
-243	495	-154	-55	31
-300	438	-96	-51	31
-148	122	-55	16	31
23	-94	-31	24	31
215	-371	-10	-7	31
194	-449	1	-15	31
72	-277	23	-17	31
227	-127	76	16	31
302	-100	88	26	31
387	102	78	59	31
325	487	26	98	31
-64	451	-26	82	31
-326	108	1	51	31
-486	267	16	13	31
-421	490	36	-21	31
-148	-227	36	-27	31
-272	-962	-14	-90	31
-264	-912	-61	-175	31
-50	-449	-103	-65	31
-84	72	-78	-55	31
-181	-101	40	-118	31
-91	-477	92	-19	31
255	-125	100	55	31
489	173	127	78	31
458	60	41	53	31
201	257	-98	42	31
180	308	-170	60	31
177	273	-224	35	31
50	320	-170	11	31
34	256	97	42	31
-28	337	264	14	31
22	230	83	-47	31
-57	154	-160	-75	31
-155	22	-214	-64	31
-174	-305	-157	-24	31
-237	-363	-1	-7	31
-196	-191	214	33	31
-138	24	339	29	31
163	224	392	37	31
440	312	307	21	31
156	215	69	-19	31
-84	141	-100	-14	31
-124	132	-221	17	31
-250	419	-306	15	31
-276	610	-209	-74	31
-161	-338	-151	-142	31
-75	-1010	-115	-110	31
16	-628	84	-7	31
172	-641	103	41	31
132	-361	98	55	31
72	31	151	109	31
146	-40	98	173	31
274	231	14	115	31
198	288	-146	27	31
7	310	-141	27	31
-205	277	-74	-32	31
-324	78	-92	-26	31
-70	4	-54	9	31
52	-110	5	-12	31
65	-57	30	-56	31
155	55	114	-74	31
163	183	220	-37	31
151	186	128	-35	31
178	299	3	9	31
-12	535	-17	27	31
-148	305	-62	-21	31
-182	-79	-79	-24	31
-341	-171	-12	-12	31
-494	-305	-17	-11	31
-599	-667	-156	4	31
-368	-824	-193	34	31
62	-668	-44	73	31
569	-21	34	62	31
569	578	52	31	31
201	500	54	-6	31
-31	252	7	-34	31
-282	-158	-14	-24	31
-149	-133	-86	-52	31
266	342	-94	-32	31
425	290	-17	15	31
79	90	19	6	31
-150	-165	25	2	31
-130	-417	-16	-36	31
-19	-440	-7	-52	31
123	-350	57	-6	31
176	-179	141	36	31
181	-9	165	72	31
61	198	59	39	31
-15	265	-45	-25	31
-145	201	-97	-43	31
-74	119	-79	-16	31
-14	-48	-32	-7	31
-51	-204	1	-24	31
-2	-164	74	20	31
-93	-76	112	34	31
-84	-34	61	21	31
-87	23	24	-7	31
-55	52	7	-35	31
60	100	-29	14	31
100	89	0	64	31
85	118	89	69	31
25	212	197	34	31
-67	219	192	-25	31
-199	196	74	-42	31
-231	309	-14	-51	31
-53	423	-130	-52	31
244	333	-118	-10	31
269	243	163	-17	31
204	18	250	-19	31
-97	-302	1	-7	31
-368	-433	-178	-50	31
-250	-327	-333	-55	31
-247	-194	-469	-11	31
46	-275	-481	75	31
154	-304	-251	72	31
40	-214	-20	12	31
97	68	-19	36	31
226	406	59	34	31
338	510	61	-8	31
1	527	79	21	31
-181	386	113	41	31
-180	188	54	-25	31
-171	-31	69	-26	31
2	-549	75	4	31
263	-925	116	50	31
324	-668	95	42	31
-255	-632	30	-46	31
-522	-658	56	-27	31
-198	-199	98	11	31
18	44	77	4	31
89	415	11	-32	31
-30	279	-44	-42	31
-101	-39	-37	-6	31
105	185	-1	21	31
84	-192	2	19	31
34	-126	76	19	31
120	142	87	7	31
-1	45	21	-32	31
171	407	-1	-14	31
347	356	-67	6	31
18	180	-75	43	31
-147	326	21	46	31
-46	284	95	-10	31
-19	206	45	3	31
-27	-19	-29	-8	31
-107	-125	-46	-12	31
-50	21	-26	-2	31
164	16	24	15	31
63	9	24	-23	31
64	-141	-9	-75	31
65	-125	-7	11	31
-15	45	4	4	31
59	-52	14	-31	31
18	-10	15	-26	31
105	-5	-31	-34	31
-7	-6	-76	-24	31
-78	33	-29	-34	31
-31	79	75	32	31
-51	275	97	77	31
74	353	14	64	31
86	509	-35	44	31
72	671	-75	6	31
-5	401	-153	-53	31
-113	-58	-146	-64	31
-158	-267	-59	-10	31
-183	-533	-7	-33	31
-175	-821	56	-29	31
-155	-776	155	14	31
-206	-657	127	13	31
-87	-569	52	26	31
236	-400	-2	36	31
262	-125	-95	47	31
56	34	-156	20	31
-85	48	-92	-8	31
-4	87	37	17	31
-7	224	67	35	31
-97	348	45	-7	31
-127	283	31	-31	31
-153	201	-9	5	31
-42	310	-26	9	31
8	529	-19	-17	31
8	371	-39	-64	31
-1	-48	6	-35	31
221	-49	122	32	31
185	-54	112	39	31
-88	-221	75	73	31
131	-130	74	108	31
145	-174	-40	100	31
97	-146	-161	29	31
92	46	-186	-67	31
29	90	-43	-89	31
-15	0	89	-95	31
-130	-142	35	-96	31
-37	-72	27	-77	31
-37	32	24	-46	31
-5	186	-22	-18	31
-8	110	-70	-44	31
-11	-112	-82	-38	31
144	21	-50	17	31
190	117	-60	33	31
45	279	-2	26	31
-185	449	-7	29	31
-356	474	-26	22	31
-454	358	-2	24	31
-199	-221	-20	27	31
-170	-521	32	11	31
-409	-406	44	-18	31
-228	-536	79	-17	31
37	-134	128	36	31
301	239	105	49	31
370	41	73	36	31
201	-73	19	11	31
203	2	-39	-1	31
129	-46	-67	12	31
150	-503	-26	-5	31
343	-609	-38	-34	31
112	-632	-66	-72	31
-367	-219	2	-66	31
-335	647	58	18	31
-29	1072	65	90	31
274	511	2	65	31
446	-336	-34	31	31
287	80	-24	41	31
117	19	-28	16	31
117	-216	-9	-9	31
-54	140	2	-4	31
-208	46	12	-6	31
-49	24	7	-1	31
0	-189	24	-5	31
72	-176	73	-4	31
-4	-90	57	-7	31
-106	-92	3	-27	31
-21	39	-37	-29	31
-67	-72	-86	-42	31
-216	60	-135	-70	31
-138	115	-93	-57	31
123	85	30	15	31
187	203	35	74	31
80	325	-34	62	31
-136	478	-27	18	31
-250	439	-8	-24	31
-312	137	9	-6	31
-293	-315	12	31	31
-239	-836	0	21	31
-104	-897	17	16	31
52	-532	36	-22	31
-64	-289	45	-41	31
-87	78	57	-17	31
-27	231	5	-39	31
175	239	-9	-7	31
364	227	53	22	31
108	140	62	4	31
-67	274	90	9	31
113	312	79	-11	31
177	335	43	-35	31
267	335	32	-2	31
189	626	-20	-2	31
-138	1005	-37	-24	31
-127	350	-120	-2	31
-75	-777	-225	36	31
-54	-1021	-165	100	31
-19	-872	-77	41	31
-16	-842	-60	-31	31
-13	-175	8	19	31
-11	143	42	21	31
91	-119	25	21	31
82	12	23	26	31
16	17	10	-6	31
24	-58	26	-16	31
77	61	4	-43	31
15	199	-27	-56	31
-121	290	-13	5	31
-158	280	47	47	31
-148	277	53	-14	31
-118	223	16	-73	31
10	24	31	-59	31
69	-154	50	-24	31
100	-271	-5	-40	31
113	-234	-39	-22	31
-12	-73	11	77	31
-97	60	7	77	31
-152	367	37	88	31
-122	473	26	49	31
54	373	32	-19	31
303	296	74	2	31
303	95	5	-69	31
39	-4	-65	-94	31
-385	-173	-85	-26	31
-312	-236	0	1	31
-47	-209	22	-22	31
-97	-368	-5	-2	31
68	-508	-21	-8	31
-161	-503	-52	-37	31
-251	-242	-16	21	31
87	88	10	47	31
445	259	52	64	31
409	523	41	78	31
234	1062	-9	63	31
223	1046	-7	21	31
-49	381	-32	-47	31
59	-34	-64	-80	31
77	-496	-29	-62	31
-53	-1138	5	-3	31
-236	-1087	-11	-12	31
-441	-741	11	-16	31
-170	-550	43	22	31
-28	-279	26	-38	31
75	-97	30	-19	31
98	148	62	36	31
-24	260	45	0	31
0	188	27	14	31
-65	133	23	8	31
-143	155	27	-2	31
-135	244	48	47	31
7	259	44	75	31
175	270	24	31	31
137	206	-16	20	31
90	181	-86	64	31
69	181	-147	2	31
-7	413	-118	-60	31
46	666	-25	-58	31
33	256	-22	-19	31
-47	-244	-20	-40	31
-148	-387	-11	-66	31
-189	-287	-50	8	31
130	188	-15	52	31
170	484	6	42	31
-96	-12	2	14	31
-45	-461	50	5	31
-127	-313	93	3	31
-181	-360	143	26	31
102	-455	105	-1	31
192	-315	-12	-60	31
135	-230	-36	-34	31
59	-113	-23	38	31
-41	0	-69	39	31
-77	156	-99	-19	31
-123	368	-34	-12	31
-128	530	-26	29	31
-67	524	-78	60	31
38	454	-46	75	31
118	298	-35	41	31
48	-21	-19	-69	31
-166	-207	39	-119	31
46	-240	120	-84	31
274	-369	153	-79	31
132	-717	114	-27	31
69	-791	76	34	31
-113	-360	-31	10	31
-186	-100	-127	34	31
-290	9	-127	52	31
-302	269	-36	35	31
-170	449	52	41	31
-69	483	75	17	31
79	255	64	-14	31
148	37	6	-38	31
221	186	-13	-18	31
-72	228	-71	-3	31
-98	-183	-136	-36	31
302	-476	-87	-38	31
545	-299	2	-52	31
46	-160	32	-73	31
-436	80	13	-7	31
8	168	-2	22	31
178	-65	-4	31	31
262	-10	29	79	31
172	114	10	30	31
118	323	39	3	31
257	768	41	39	31
100	1272	19	51	31
102	1361	37	50	31
-54	823	1	28	31
-333	-122	-29	6	31
-489	-1077	-84	-16	31
-506	-1404	-82	-40	31
-284	-1238	-42	-77	31
-54	-1024	-14	-86	31
185	-987	12	-35	31
341	-677	50	26	31
123	-280	77	60	31
51	-145	74	41	31
51	154	80	26	31
-47	203	61	1	31
-5	237	51	-8	31
-44	310	24	23	31
-2	285	6	14	31
-34	350	-54	26	31
-85	295	-118	65	31
-37	276	-26	64	31
-14	221	67	-19	31
14	224	20	-48	31
-8	216	-84	-29	31
-12	117	-143	-86	31
-14	90	-184	-19	31
-25	80	-196	19	31
-67	145	-85	-34	31
-7	130	83	-40	31
69	93	193	-88	31
122	57	179	-76	31
136	-38	94	-22	31
48	-58	24	9	31
33	-15	9	63	31
-72	49	45	119	31
-139	119	68	73	31
-113	103	74	-17	31
-106	-149	70	-50	31
-52	-289	72	-24	31
-29	-153	-24	27	31
7	-152	-136	41	31
14	-56	-107	41	31
12	347	-90	1	31
6	677	-98	-44	31
-44	254	-70	-77	31
-18	-506	-54	-96	31
-19	-517	-65	-36	31
37	-275	-24	82	31
113	31	36	130	31
15	324	-1	74	31
-75	225	-30	33	31
-67	26	-4	-14	31
80	-150	27	-13	31
178	-279	39	21	31
25	-353	15	-24	31
-88	-333	14	-40	31
-173	-254	66	-17	31
-247	-144	117	-7	31
-319	-50	108	27	31
-292	74	26	3	31
100	157	-70	-9	31
354	126	-119	31	31
424	222	-59	34	31
344	189	-10	12	31
319	-163	26	0	31
271	-109	90	-6	31
-75	267	50	-2	31
-396	275	12	1	31
-388	298	18	-17	31
163	163	28	-27	31
122	-129	-17	-54	31
-161	-293	-68	-54	31
36	-471	-1	-24	31
140	-336	57	1	31
189	-146	22	2	31
-45	-88	-43	-14	31
-58	-41	-62	6	31
-24	62	-16	9	31
-130	153	-11	24	31
-32	92	-50	46	31
-54	32	-46	44	31
-126	20	-15	54	31
-77	11	32	9	31
282	-44	107	-31	31
334	87	105	24	31
124	252	3	66	31
90	370	-81	53	31
39	503	-120	18	31
-32	416	-136	-20	31
-176	243	-125	-68	31
-280	-118	-41	-148	31
-329	-474	8	-173	31
-198	-560	-7	-89	31
-74	-492	72	-27	31
-48	-345	133	-14	31
71	-163	160	39	31
107	32	161	60	31
106	150	121	66	31
117	298	103	26	31
67	375	108	11	31
-19	297	49	55	31
-82	166	-65	22	31
-74	-26	-99	11	31
-57	-252	-151	-6	31
-32	-335	-157	-2	31
36	-131	-102	19	31
-14	-25	-61	16	31
-123	61	-14	-30	31
-50	205	13	-55	31
47	193	64	39	31
48	292	80	71	31
24	203	66	70	31
12	1	57	47	31
27	-29	6	-2	31
123	-59	-45	-6	31
241	168	-57	-27	31
277	450	-4	-24	31
20	339	-24	-19	31
-296	-82	-100	-30	31
-363	-360	-62	-54	31
-439	-667	6	-93	31
-199	-1003	80	-59	31
67	-845	139	19	31
122	-630	112	49	31
77	-189	58	18	31
-143	248	-32	-2	31
-151	168	-148	17	31
-53	180	-193	36	31
297	165	-103	49	31
370	230	-37	39	31
42	284	-30	-7	31
151	248	31	-30	31
78	463	64	-9	31
95	634	52	27	31
209	892	3	35	31
121	808	-7	30	31
17	169	-25	14	31
-398	-230	-58	-17	31
-368	-325	-32	-31	31
-84	-555	-40	-52	31
26	-830	-48	-64	31
170	-691	7	-24	31
176	-425	51	12	31
-103	-223	47	2	31
-28	248	67	12	31
167	554	69	19	31
41	217	52	4	31
151	-229	8	2	31
17	-94	-42	2	31
40	125	-38	6	31
156	134	-62	-2	31
8	10	-30	-14	31
-61	-212	64	-7	31
-161	-106	93	1	31
-131	-186	54	26	31
-5	-313	18	57	31
16	-59	-17	44	31
-39	285	-46	7	31
-31	441	5	-25	31
-62	291	49	-30	31
-39	283	16	-48	31
-103	226	-22	-32	31
-112	129	-26	5	31
54	294	-45	-26	31
280	444	-51	-4	31
309	421	-38	29	31
42	280	-7	-1	31
-1	71	12	4	31
-248	-497	-9	-4	31
-479	-1082	4	-20	31
-297	-1173	37	5	31
-16	-849	83	37	31
55	-447	32	15	31
-20	-253	-15	3	31
145	26	-6	26	31
52	275	-33	9	31
-79	317	21	56	31
-39	261	27	50	31
-66	118	-4	-7	31
12	74	-13	-34	31
-62	76	-9	-19	31
-196	130	16	14	31
-178	165	14	-34	31
63	101	36	-22	31
292	92	37	-40	31
178	116	36	-64	31
65	173	50	-12	31
103	157	49	-15	31
113	169	23	-34	31
167	330	2	-14	31
221	232	-1	-29	31
92	-161	-31	-34	31
-8	-303	-63	22	31
-97	-136	-108	29	31
-89	21	-136	19	31
41	242	-114	52	31
-20	320	-66	43	31
-158	220	3	-3	31
-237	-40	45	21	31
-239	-391	118	14	31
-230	-429	156	-15	31
-277	-469	80	-9	31
-41	-332	45	-10	31
150	98	-22	5	31
-14	409	-143	-14	31
537	642	-157	0	31
584	535	-124	24	31
-108	105	-152	38	31
118	-336	-130	37	31
22	-327	-14	8	31
-42	49	37	-23	31
-16	-22	77	-14	31
-32	-267	109	28	31
214	-64	106	26	31
-11	383	120	49	31
-24	31	51	42	31
-89	-268	34	23	31
-130	-11	36	12	31
-143	-350	-55	-37	31
-256	-389	-90	-56	31
-93	-219	-65	-39	31
-66	-106	-29	-49	31
27	39	-9	-56	31
185	-37	-11	-23	31
160	52	-20	18	31
36	16	-11	55	31
76	252	20	56	31
87	614	50	48	31
-12	399	50	22	31
-26	160	-4	-19	31
-130	353	-33	-9	31
-71	258	-17	19	31
38	-461	6	-8	31
69	-505	1	-70	31
108	-226	22	-65	31
34	-364	93	4	31
-154	-269	49	-32	31
-412	-376	-47	-91	31
-449	-427	-40	-44	31
-256	-186	-37	-21	31
-189	24	-38	-13	31
67	172	15	4	31
491	-10	87	54	31
530	111	144	102	31
307	368	81	54	31
195	381	-22	11	31
120	487	-89	-14	31
-103	137	-101	-34	31
-108	-237	-11	-1	31
-208	-126	87	36	31
-299	-59	158	33	31
-224	-2	88	-32	31
-284	-34	-21	-38	31
-330	-181	-93	-26	31
-228	-98	-181	-41	31
108	188	-169	10	31
327	42	-47	15	31
449	-70	82	36	31
391	193	115	84	31
225	100	104	57	31
21	150	47	11	31
-84	150	-20	-28	31
-74	226	-80	-2	31
-95	470	-109	57	31
72	229	-54	42	31
153	70	-19	33	31
179	13	-16	19	31
-11	-55	-24	-54	31
-159	-176	-24	-59	31
-118	-236	-39	-47	31
-230	-144	-47	-92	31
-209	-206	10	-31	31
-184	-249	69	44	31
-98	-161	70	1	31
161	85	67	12	31
191	98	52	7	31
87	33	14	-20	31
3	168	23	45	31
-199	-5	31	47	31
-304	-187	32	-19	31
-113	-141	33	-40	31
330	154	19	2	31
327	356	-22	11	31
54	84	-78	-29	31
88	-166	-84	1	31
-31	-469	-77	23	31
-4	-556	-84	-22	31
-46	-281	-45	-15	31
-115	-200	52	85	31
-72	-132	51	37	31
-115	-62	43	-29	31
155	166	64	-16	31
82	636	64	-50	31
-36	684	82	-1	31
239	394	12	-11	31
173	343	-1	-64	31
160	274	-48	-112	31
19	-54	-136	-103	31
-404	-563	-98	-31	31
-212	-801	-27	49	31
-80	-411	-64	115	31
-136	-317	-132	66	31
55	-124	-20	37	31
122	227	129	3	31
175	34	143	16	31
85	115	74	58	31
-103	19	1	55	31
-192	-171	-93	46	31
-173	-95	-61	4	31
-2	60	1	-63	31
51	85	30	-72	31
55	-229	109	6	31
66	-53	91	9	31
-49	92	77	-9	31
-99	63	80	-15	31
-49	267	45	-8	31
56	353	-17	6	31
44	334	-69	-13	31
16	126	-110	29	31
22	146	-120	14	31
-46	467	-38	-26	31
-29	448	-6	-14	31
122	122	12	24	31
309	-80	22	59	31
244	-105	11	37	31
67	-60	-6	25	31
-102	-214	-67	22	31
-254	-436	-39	-5	31
-287	-302	-8	-26	31
-229	-69	6	26	31
-122	-261	49	20	31
-112	-571	48	-65	31
-52	-245	89	-62	31
97	11	68	-67	31
178	-31	5	-66	31
85	186	2	-33	31
-12	238	-14	-29	31
3	252	-44	36	31
22	282	-75	60	31
60	111	-77	34	31
77	45	-41	19	31
59	166	-10	4	31
-68	209	29	49	31
-2	-31	68	64	31
60	-175	97	5	31
-107	-78	103	-11	31
-105	-53	67	9	31
-100	-219	15	8	31
-144	-394	-91	-1	31
-85	-345	-149	-21	31
42	-254	-141	-38	31
396	49	-113	-49	31
298	269	-46	-40	31
-68	509	14	-21	31
84	885	85	45	31
73	290	65	87	31
100	-218	16	44	31
26	122	2	35	31
-152	187	4	11	31
-67	-11	12	11	31
-93	-279	-39	50	31
-75	-652	-86	-28	31
-132	-808	-53	-102	31
13	-619	4	-75	31
171	-328	11	9	31
83	-75	31	70	31
93	231	125	47	31
75	475	179	-14	31
59	451	141	-83	31
-18	258	89	-89	31
-135	222	36	-51	31
-220	135	-19	-48	31
-262	-186	-62	-81	31
-234	-138	-54	-95	31
-194	54	-12	-4	31
-63	-57	-7	51	31
71	-30	-51	22	31
76	21	-104	14	31
170	-41	-93	41	31
251	50	8	105	31
192	44	82	61	31
71	-32	41	-9	31
-67	-23	-21	-16	31
-62	120	-43	-15	31
-97	371	-56	12	31
-90	333	-79	37	31
-3	286	-60	65	31
141	348	-17	49	31
267	-110	-53	6	31
-9	-651	-59	-62	31
-120	-575	2	-62	31
60	-315	35	35	31
65	-108	60	61	31
50	100	57	43	31
43	396	55	44	31
-67	750	34	20	31
-200	363	38	-2	31
-134	-152	80	-25	31
-27	-163	80	-52	31
-43	-350	52	-12	31
-195	-209	-27	26	31
-129	-129	-126	-1	31
-69	-183	-171	-9	31
-116	437	-153	24	31
129	441	-34	-16	31
-70	-29	140	-40	31
-160	-289	106	-7	31
55	-605	-14	-35	31
83	-588	-26	-60	31
236	-538	-57	-118	31
158	-290	-2	-71	31
241	-32	33	114	31
245	-54	41	158	31
32	113	59	55	31
63	156	6	0	31
27	164	7	-6	31
46	249	-38	-58	31
-2	243	-70	-32	31
-7	201	-39	21	31
22	113	-21	26	31
9	133	51	22	31
26	251	72	-1	31
-57	543	49	-7	31
17	561	75	14	31
69	254	93	8	31
-46	276	80	16	31
-228	184	36	7	31
-349	-7	-94	-29	31
-302	-125	-199	16	31
-270	-396	-187	-9	31
-156	-545	-65	-42	31
80	-568	57	4	31
130	-524	20	-7	31
68	-512	-29	-19	31
98	-464	-10	-51	31
34	-213	1	-84	31
-75	27	-4	-26	31
-74	204	8	16	31
-21	270	27	19	31
58	226	42	49	31
117	292	99	49	31
37	318	120	16	31
-10	203	97	-16	31
126	194	44	-44	31
224	139	4	46	31
278	77	-36	110	31
266	471	-57	33	31
11	771	52	19	31
-153	181	67	34	31
-246	-539	-82	-9	31
-496	-450	-178	-55	31
-523	-743	-241	1	31
-207	-1092	-148	63	31
206	-324	37	-87	31
214	-125	54	-191	31
91	-108	44	-102	31
34	165	14	-21	31
-26	155	47	57	31
161	315	54	88	31
141	300	-37	64	31
41	408	-16	17	31
-37	535	79	31	31
-57	565	157	46	31
54	213	110	19	31
105	-491	64	18	31
143	-556	5	-34	31
19	-232	-95	-11	31
-40	22	-125	21	31
-34	188	-158	32	31
-107	153	-102	4	31
-59	21	10	-109	31
54	-92	97	-102	31
182	-214	147	-74	31
84	-176	64	-33	31
-22	156	-15	78	31
161	454	-67	71	31
254	189	-184	54	31
244	-162	-155	72	31
11	-124	-46	13	31
-138	-118	22	-6	31
-110	-117	90	6	31
-278	-298	165	1	31
-302	-511	262	25	31
-130	-260	176	-25	31
33	-4	-17	-61	31
-57	74	-171	24	31
-107	115	-272	17	31
-64	169	-209	-6	31
-54	335	-27	18	31
57	393	90	34	31
39	363	67	43	31
35	320	65	-80	31
62	135	74	-125	31
114	-77	64	-55	31
57	-191	76	-51	31
-95	-299	63	-39	31
-115	-294	11	-16	31
-141	-155	-54	-7	31
-132	-203	-107	6	31
-39	-129	-67	19	31
21	-15	13	29	31
72	-118	1	-1	31
103	-37	23	-35	31
24	4	22	11	31
2	68	-15	82	31
-43	142	-55	43	31
-4	76	-48	15	31
159	224	14	40	31
160	343	8	20	31
128	272	63	13	31
163	251	95	13	31
98	349	-26	9	31
-108	623	-123	21	31
-193	682	-24	24	31
-117	-7	31	1	31
-56	-618	1	19	31
-37	-596	-2	43	31
-14	-519	-2	23	31
-55	-566	-2	-32	31
-59	-608	-9	-45	31
-87	-272	37	-1	31
-249	230	11	-1	31
-53	768	-21	51	31
252	1130	-56	53	31
261	353	-128	0	31
195	-647	-85	-6	31
-59	-790	-7	16	31
-179	-918	34	2	31
-175	-811	87	-47	31
-290	-298	111	-29	31
-8	-240	100	-34	31
115	-120	92	-51	31
-187	95	2	-37	31
60	153	-36	-36	31
298	317	-56	-24	31
174	297	-113	24	31
294	242	-42	47	31
170	235	57	23	31
13	196	138	-40	31
30	156	89	-82	31
33	128	-26	-57	31
54	161	-49	-65	31
-56	146	-83	-23	31
-105	131	-96	7	31
-75	48	-102	-18	31
3	-116	-70	12	31
81	-168	-55	40	31
-8	-163	-54	42	31
-65	-75	1	39	31
-110	135	39	77	31
-50	351	97	123	31
88	434	112	65	31
21	401	113	0	31
84	382	60	37	31
0	126	-6	-38	31
-247	-191	-48	-131	31
-254	-192	-103	-39	31
-201	-337	-67	-27	31
-69	-591	-28	-43	31
57	-586	19	-37	31
44	-381	94	-2	31
115	-194	203	70	31
120	-145	228	31	31
-37	-10	125	-9	31
3	104	-6	7	31
21	212	-138	93	31
-24	264	-138	73	31
-19	194	-122	-50	31
-25	242	-54	-43	31
-3	207	34	-20	31
-24	85	4	-74	31
49	16	-17	-82	31
130	44	-70	-24	31
202	164	-50	2	31
156	222	-14	13	31
-242	161	-6	35	31
-366	-48	16	93	31
-232	-120	16	84	31
-155	-146	39	32	31
-4	-306	45	41	31
102	-219	189	39	31
281	-145	204	72	31
223	-162	-59	29	31
52	60	-191	8	31
13	174	-278	29	31
-59	182	-309	-42	31
27	322	-180	-67	31
89	156	55	27	31
20	-233	207	-17	31
-72	-257	127	-156	31
-54	-272	132	-15	31
-8	-264	92	2	31
-32	81	-17	-78	31
54	320	-1	-52	31
102	452	27	-59	31
108	277	83	30	31
142	59	114	60	31
72	204	86	70	31
-97	249	-31	42	31
-333	107	-166	16	31
-478	-135	-224	16	31
-479	-398	-196	-38	31
-177	-847	-73	-37	31
173	-927	89	-26	31
279	-467	128	-82	31
249	-273	80	-160	31
118	-45	125	-100	31
179	130	65	0	31
115	169	-72	-9	31
41	259	-105	-12	31
64	232	-112	27	31
-32	353	-69	50	31
-74	606	14	89	31
-1	947	57	135	31
419	957	10	103	31
590	609	-19	42	31
186	350	-7	7	31
-272	-158	14	-21	31
-573	-654	58	-94	31
-613	-947	44	-118	31
-484	-1046	67	-42	31
-273	-767	26	-6	31
27	-641	-67	8	31
178	-516	22	55	31
186	-253	135	116	31
151	-13	52	105	31
122	494	-22	97	31
101	651	-98	57	31
49	345	-232	35	31
-32	55	-202	50	31
-99	-259	-135	-1	31
-55	-126	-13	19	31
7	265	72	16	31
127	340	117	-55	31
147	375	148	-192	31
12	359	133	-184	31
117	69	139	-42	31
98	-113	25	-57	31
-62	-193	-58	44	31
28	-298	-92	77	31
34	-171	-92	-37	31
46	-40	-5	-37	31
-2	50	21	-7	31
-49	50	32	49	31
-21	-44	79	82	31
-41	48	117	98	31
-10	149	110	4	31
-50	243	63	-102	31
122	381	-6	-51	31
304	397	-99	-2	31
148	403	-141	21	31
-96	375	-84	36	31
-277	108	5	32	31
-408	-276	-12	-31	31
-446	-582	-86	-87	31
-304	-677	-103	-2	31
-68	-504	-98	4	31
5	-409	-92	-38	31
-95	-300	-33	51	31
-22	-92	37	81	31
14	115	40	39	31
118	704	48	32	31
476	1062	64	37	31
504	616	92	32	31
193	-37	125	1	31
1	-414	113	-46	31
-79	-474	79	-70	31
-80	-285	64	-42	31
-112	-115	12	6	31
-295	-462	-88	-13	31
-264	-596	-85	-50	31
74	-192	4	-16	31
317	-145	40	61	31
260	0	16	95	31
258	386	-12	39	31
499	754	-1	-4	31
544	788	87	-24	31
29	278	37	-50	31
-377	173	-140	-70	31
-570	117	-203	-115	31
-697	-291	-249	-65	31
-312	-517	-124	89	31
-51	-512	55	123	31
-17	-457	77	84	31
47	-439	87	1	31
185	-279	82	-115	31
236	-107	67	-1	31
69	61	60	61	31
8	276	77	2	31
-61	427	97	-2	31
-29	373	96	-32	31
84	255	38	-32	31
49	378	-41	12	31
-87	389	-91	73	31
-137	180	-87	28	31
64	-44	-72	-3	31
165	-100	-77	37	31
188	-132	-1	39	31
250	-226	48	13	31
22	-165	-27	-18	31
-353	-194	-71	-63	31
-456	-294	1	-74	31
-307	-284	44	-15	31
-128	-236	12	-7	31
-118	-191	-24	12	31
-90	-31	-64	16	31
45	344	-73	-45	31
-137	619	-29	-76	31
-113	297	58	2	31
120	72	135	52	31
240	439	130	-11	31
431	426	84	52	31
275	372	76	71	31
42	317	37	12	31
41	-326	-102	-21	31
-60	-674	-225	-59	31
-91	-455	-229	7	31
141	-118	-120	110	31
119	-51	-39	90	31
-9	-174	54	30	31
98	-174	241	44	31
77	-214	297	4	31
-37	-457	77	-79	31
-92	-647	-172	-107	31
-9	-492	-215	-121	31
9	-216	-128	-155	31
4	26	-29	-77	31
58	216	32	-10	31
54	244	118	-16	31
107	219	115	57	31
75	307	1	58	31
11	328	-63	68	31
-77	202	-87	43	31
-155	173	-85	-29	31
9	226	-32	3	31
193	411	39	49	31
248	669	37	94	31
174	655	60	99	31
-74	445	29	70	31
-403	123	-62	-4	31
-630	-373	-70	-38	31
-562	-851	-21	-69	31
-189	-877	98	-153	31
59	-589	160	-95	31
37	-469	213	-11	31
148	-333	205	-4	31
145	-150	72	84	31
12	4	-13	64	31
11	88	-94	-49	31
-60	76	-130	-36	31
-61	131	-73	-55	31
7	186	-22	-39	31
33	249	-48	-10	31
205	312	-58	65	31
244	383	-27	156	31
136	452	-1	107	31
256	443	35	76	31
160	290	-12	31	31
-40	44	-47	65	31
-69	-117	-47	100	31
-242	-286	-98	-92	31
-280	-386	-40	-171	31
-127	-328	132	-12	31
12	-238	190	1	31
-24	-204	105	-11	31
-66	-124	-6	3	31
-54	-2	-62	-85	31
-70	9	-20	-40	31
95	138	30	4	31
125	339	23	14	31
208	465	10	57	31
344	482	-98	16	31
107	381	-239	-107	31
41	273	-295	-95	31
-38	-8	-214	4	31
-228	-285	-38	-26	31
-293	-438	75	-11	31
-269	-418	160	39	31
-76	-60	165	33	31
-107	31	93	26	31
-38	-183	69	37	31
87	-292	-27	75	31
145	-364	-123	29	31
183	-389	-57	-49	31
166	-291	20	-24	31
223	-24	98	-24	31
52	160	135	17	31
65	420	114	63	31
39	604	67	9	31
-180	281	-10	44	31
-256	-140	-7	19	31
-299	-300	-11	-54	31
-123	-306	-47	-8	31
81	-379	-36	42	31
117	-208	-38	12	31
140	69	-56	-41	31
244	227	-60	-37	31
101	286	-14	-49	31
-34	300	115	-44	31
-8	407	144	3	31
-49	204	62	-12	31
-14	-14	-23	-26	31
-163	136	-22	20	31
-302	343	-37	21	31
-189	-11	-90	-6	31
67	-655	-72	-29	31
146	-593	-100	-41	31
128	-307	-95	-16	31
190	-341	-62	-14	31
167	-134	3	-12	31
160	91	7	-10	31
155	75	-1	4	31
53	193	72	57	31
-188	159	85	138	31
-274	151	95	125	31
-269	227	85	1	31
-178	176	80	20	31
-38	280	11	46	31
-103	309	-112	-16	31
-15	17	-151	-19	31
133	-267	-63	-10	31
124	-79	32	-18	31
113	11	45	-60	31
65	-171	74	-29	31
91	148	26	9	31
141	633	-47	12	31
70	641	-44	28	31
10	422	79	92	31
2	335	136	77	31
-75	-2	7	-130	31
-173	-499	-30	-216	31
-34	-727	36	-97	31
165	-757	67	70	31
64	-640	24	65	31
-92	-624	-26	9	31
-113	-561	-31	29	31
-179	-350	-92	-75	31
-149	-237	-107	-53	31
-27	-72	-103	54	31
-55	-2	-85	73	31
50	110	18	100	31
289	460	53	23	31
304	814	25	27	31
64	1106	-14	44	31
-203	914	8	-25	31
-347	35	43	11	31
-391	-746	45	-56	31
-229	-861	79	-178	31
80	-538	101	-137	31
204	42	31	-46	31
24	305	-41	-16	31
79	152	-52	32	31
183	267	-28	91	31
125	368	45	105	31
119	398	12	57	31
-25	214	-70	-23	31
-4	-37	-89	-37	31
94	18	-110	-7	31
216	-125	-100	1	31
370	-34	-16	-6	31
354	-58	65	36	31
127	-273	84	3	31
-166	-291	84	-102	31
-310	-436	23	-75	31
-446	-307	-1	-18	31
-368	-257	62	-2	31
-196	-279	155	24	31
-39	-192	153	26	31
71	-171	4	52	31
24	-97	-161	45	31
-26	11	-244	1	31
-120	154	-226	14	31
-44	98	-178	51	31
24	77	-59	8	31
18	165	5	-59	31
41	192	81	-8	31
27	255	257	69	31
37	290	333	96	31
-28	474	332	95	31
98	636	229	89	31
194	568	-101	19	31
98	465	-406	-12	31
11	302	-520	36	31
-168	12	-353	-34	31
-193	-388	8	-169	31
18	-694	154	-188	31
140	-667	185	-131	31
87	-436	40	-50	31
39	-417	-58	19	31
-59	-280	7	79	31
-25	17	21	101	31
152	66	92	-21	31
170	269	131	-26	31
199	351	87	-29	31
135	373	-89	-52	31
-22	399	-208	27	31
-130	146	-246	-1	31
-262	90	-109	-31	31
-302	-11	97	4	31
-287	-312	142	-26	31
-146	-533	74	-44	31
97	-345	9	62	31
118	-23	129	75	31
-40	14	150	64	31
-134	115	76	86	31
-80	147	52	47	31
126	251	52	77	31
207	464	46	37	31
186	358	14	52	31
215	123	-2	113	31
118	-163	-60	9	31
-104	-530	-97	-33	31
-321	-786	-66	43	31
-196	-682	24	60	31
-4	-369	108	-116	31
44	-160	150	-214	31
98	70	113	-118	31
6	367	38	-133	31
26	684	-36	-93	31
335	738	-168	-41	31
492	634	-215	-112	31
175	892	-157	19	31
-191	1062	-66	151	31
-431	740	-9	77	31
-678	43	64	-50	31
-593	-842	143	-36	31
-151	-1434	118	97	31
135	-1670	-12	57	31
343	-1405	-108	4	31
396	-846	-95	50	31
188	-475	-40	77	31
206	-88	-11	72	31
89	105	-11	29	31
-5	235	24	3	31
52	410	-2	-33	31
30	389	11	-125	31
74	353	6	-187	31
1	310	-21	-150	31
-12	346	78	-36	31
-9	334	85	120	31
-65	305	9	87	31
-81	355	-27	-36	31
-47	204	-124	52	31
-4	17	-144	70	31
-44	6	92	123	31
-47	19	287	185	31
-12	82	255	60	31
9	276	56	51	31
6	173	-99	16	31
-26	-131	-226	-7	31
-108	-94	-352	-11	31
-127	-28	-219	-82	31
16	-150	-59	-105	31
33	-156	136	-112	31
-13	-88	209	-122	31
34	-56	19	-96	31
-59	126	7	-32	31
-27	474	20	-16	31
161	871	27	-40	31
155	725	15	-9	31
21	-250	-50	80	31
-77	-621	-59	112	31
-113	128	-119	128	31
-110	312	-108	97	31
-38	-399	-32	-7	31
62	-757	45	-63	31
241	-464	94	-55	31
372	-178	78	-46	31
108	-247	60	-82	31
-58	-287	125	-64	31
16	-367	204	-33	31
-236	-447	72	-93	31
-482	-725	-62	-153	31
-330	-691	-60	-77	31
27	-174	-137	-9	31
10	-34	-70	181	31
-31	193	47	375	31
54	219	-1	190	31
-18	286	-31	52	31
67	620	-38	41	31
37	644	-24	-58	31
37	263	-26	-122	31
41	-58	-73	-23	31
-22	171	-27	67	31
77	126	98	57	31
199	257	78	90	31
261	657	17	-11	31
198	724	-65	-39	31
51	711	-112	28	31
-186	397	-24	-64	31
-347	-8	-28	-139	31
-452	-528	-49	-137	31
-391	-850	95	-22	31
-52	-807	297	10	31
111	-687	197	-80	31
156	-421	28	8	31
226	-215	103	95	31
183	52	98	1	31
236	310	54	-31	31
307	425	49	83	31
238	387	-98	101	31
106	269	-332	31	31
-74	130	-295	-12	31
-211	-94	-93	-18	31
-250	-182	-41	-17	31
-178	-212	30	-56	31
-103	-288	2	-183	31
-34	-222	-9	-180	31
63	-23	51	32	31
65	43	-22	73	31
76	66	-31	4	31
152	202	11	90	31
146	265	44	113	31
22	371	40	19	31
-97	554	51	54	31
-157	560	62	60	31
-234	256	-68	-33	31
-264	-57	-128	-90	31
-57	-157	-13	-36	31
31	-356	178	-67	31
2	-599	234	-102	31
102	-641	119	-26	31
42	-497	6	-38	31
27	-350	-130	51	31
23	-211	-191	123	31
33	4	-199	65	31
2	81	-169	-4	31
-92	140	-82	-21	31
-68	171	-44	18	31
3	161	57	32	31
90	303	74	80	31
55	237	52	142	31
12	-108	124	-11	31
-11	-224	170	-274	31
7	-29	131	-168	31
41	84	-6	137	31
93	199	-122	74	31
128	368	-191	-14	31
133	421	-159	55	31
83	487	43	77	31
-152	466	265	211	31
-325	441	171	-17	31
-203	461	16	-476	31
124	571	-85	-214	31
241	681	-232	84	31
216	-30	-140	-9	31
74	-1221	-50	130	31
-110	-1598	19	289	31
-22	-1484	209	175	31
-87	-1466	247	-54	31
-170	-881	156	-181	31
-53	-229	160	-180	31
-84	-40	-17	-61	31
-112	181	-214	59	31
30	215	-179	174	31
108	366	-63	55	31
64	401	-76	-19	31
56	209	-157	46	31
32	332	27	-80	31
-26	406	41	-88	31
-20	463	-18	-117	31
37	561	-37	-46	31
98	639	-62	100	31
107	436	39	73	31
12	-126	54	57	31
-108	-274	79	12	31
-178	-330	21	22	31
-183	-585	-61	84	31
-97	-359	-86	112	31
-30	-155	-62	89	31
87	-57	6	-42	31
83	54	39	-89	31
-31	9	36	-27	31
-19	188	39	65	31
36	123	227	158	31
90	154	291	4	31
-38	323	223	-79	31
-41	160	157	-11	31
-12	54	51	-161	31
-42	-50	19	-208	31
151	-31	-82	-96	31
103	6	-244	-47	31
-20	33	-326	16	31
6	109	-146	-31	31
-32	96	35	-103	31
2	222	-36	-34	31
22	259	-62	109	31
25	283	-220	199	31
223	429	-310	228	31
204	267	-79	80	31
-122	-33	-37	-127	31
-99	-82	28	16	31
-39	-85	177	69	31
-128	-334	188	-97	31
-101	-496	102	-161	31
-109	-358	76	-95	31
-145	-429	122	-25	31
-196	-715	-28	39	31
13	-635	-47	77	31
115	-389	-26	-69	31
46	-275	-41	-120	31
65	118	69	-34	31
1	625	102	38	31
95	507	117	109	31
90	-225	84	191	31
35	-391	104	198	31
19	-2	34	63	31
-20	137	-165	-151	31
35	354	-172	-268	31
40	424	-70	-171	31
52	262	20	-165	31
-1	123	162	44	31
-22	68	429	278	31
-102	61	396	7	31
-226	-101	-73	-57	31
-82	-140	-404	-129	31
194	4	-571	-133	31
342	226	-647	38	31
161	479	-541	-3	31
37	630	-138	170	31
-21	681	355	157	31
-281	517	287	19	31
-368	-70	103	50	31
-309	-634	78	-9	31
-150	-902	124	-13	31
14	-1031	332	63	31
59	-836	213	117	31
138	-529	29	85	31
107	-294	-54	-19	31
6	-77	-117	-55	31
-37	81	-22	-62	31
-47	161	70	8	31
41	202	143	87	31
72	234	12	-1	31
74	294	-174	-18	31
165	454	-252	106	31
286	673	-209	171	31
330	989	25	169	31
337	1205	110	11	31
166	965	69	-100	31
-247	347	58	-18	31
-468	-472	59	-145	31
-620	-1261	62	-299	31
-497	-1601	53	-238	31
-109	-1424	145	-35	31
166	-785	256	125	31
229	-153	203	38	31
101	144	77	80	31
105	234	20	78	31
69	26	-26	-56	31
22	-11	-98	-89	31
-33	63	-135	-182	31
22	122	-113	-85	31
105	349	-10	95	31
15	601	109	59	31
-57	900	105	9	31
-78	660	-17	4	31
-57	105	-171	-99	31
-24	-200	-223	-26	31
172	-318	-268	107	31
252	-269	-211	50	31
105	-195	-33	27	31
-79	-126	3	-5	31
-246	-37	42	-44	31
-274	171	87	-37	31
-176	-1	97	-75	31
9	-429	93	-109	31
99	-356	138	-51	31
128	-60	90	-20	31
112	-27	-50	48	31
125	250	17	230	31
205	796	6	117	31
236	860	82	-6	31
201	706	117	106	31
2	539	-95	54	31
-46	143	-332	95	31
-100	-553	-439	41	31
-246	-857	-254	-49	31
-264	-705	-65	-56	31
-401	-833	41	-128	31
-334	-795	39	-57	31
-96	-540	95	-49	31
-11	-247	160	-110	31
90	-19	112	-59	31
141	86	121	62	31
95	157	82	67	31
134	100	152	49	31
134	133	257	23	31
135	204	153	-4	31
160	253	59	-96	31
29	237	21	-179	31
-19	296	-105	1	31
-10	487	-157	175	31
-24	785	-107	224	31
146	1284	-67	139	31
329	1233	-107	115	31
92	472	-150	80	31
-98	-103	-108	-145	31
-113	-433	-89	-175	31
-439	-996	-84	-65	31
-481	-1347	-24	-71	31
-174	-1198	97	-35	31
27	-1057	135	-27	31
85	-851	96	-117	31
91	-407	145	-99	31
97	-26	264	-45	31
140	145	294	-16	31
178	327	213	-6	31
241	611	153	34	31
432	933	15	82	31
403	1271	-73	123	31
96	1291	-129	230	31
-320	804	-350	221	31
-691	-26	-499	26	31
-829	-920	-426	-107	31
-481	-1542	-108	-127	31
97	-1482	107	-61	31
297	-852	149	-1	31
299	-401	189	70	31
149	-146	86	130	31
16	103	32	47	31
52	230	13	-135	31
43	302	9	-206	31
21	305	-24	-102	31
2	328	-32	-107	31
-11	358	22	-38	31
-21	377	14	75	31
7	346	29	138	31
38	274	-1	163	31
47	291	-2	116	31
-14	305	12	52	31
-3	243	-19	-76	31
30	168	-62	-62	31
-41	90	-97	-83	31
-42	-196	-46	-119	31
-8	-507	165	-103	31
108	-447	386	-75	31
130	-249	260	51	31
70	-124	56	146	31
63	21	-17	218	31
16	95	-84	178	31
80	231	-138	218	31
240	547	-200	85	31
319	725	-184	-245	31
75	674	-170	-286	31
-94	510	-70	-199	31
-144	294	143	-11	31
-392	-88	105	3	31
-486	-624	-80	-65	31
-345	-848	-50	-19	31
-171	-728	-60	-218	31
-162	-751	-119	-184	31
29	-727	-24	29	31
161	-413	-17	2	31
88	-94	-87	53	31
97	157	-46	44	31
57	311	12	54	31
81	363	20	123	31
38	267	69	84	31
12	95	98	78	31
44	41	213	91	31
12	-47	250	73	31
-65	-173	98	67	31
40	-173	18	105	31
194	-23	-66	51	31
69	148	-113	-4	31
7	184	-90	-39	31
-59	89	-11	-87	31
-132	107	87	-48	31
-119	147	146	-16	31
-98	76	210	19	31
-17	142	172	20	31
-34	97	26	-22	31
4	17	-226	-94	31
152	43	-420	-87	31
146	-44	-409	-12	31
77	52	-241	-42	31
171	406	-66	-33	31
155	511	4	13	31
-58	351	47	85	31
-171	251	39	127	31
-289	-36	64	60	31
-137	-378	97	37	31
92	-459	92	-5	31
185	-354	145	-6	31
315	-416	204	43	31
95	-441	187	-1	31
-110	-269	93	31	31
-233	-292	72	94	31
-326	-153	172	14	31
-191	-38	197	-37	31
22	27	85	-95	31
254	325	-59	-122	31
167	497	-237	-130	31
-23	218	-338	-120	31
-37	-375	-257	-54	31
47	-449	-57	-51	31
92	-143	8	43	31
55	-39	-63	161	31
61	22	-17	175	31
-32	114	74	115	31
-27	109	196	93	31
-6	60	266	55	31
-35	37	196	-21	31
-32	-76	190	-68	31
-41	-79	145	-110	31
34	37	-126	-2	31
6	80	-303	71	31
-2	110	-365	59	31
2	120	-317	79	31
17	176	-234	50	31
95	341	-183	-135	31
46	690	60	-334	31
194	1178	118	-180	31
332	1160	72	-24	31
-51	595	51	29	31
-324	8	-8	45	31
-423	-659	-13	-87	31
-572	-1256	-21	-117	31
-323	-1428	112	-64	31
-26	-1128	170	36	31
148	-712	117	100	31
175	-504	62	104	31
133	-386	-32	56	31
186	-205	-6	57	31
151	42	32	55	31
102	202	72	-41	31
49	234	78	-51	31
25	348	-5	-69	31
-24	579	41	-77	31
-50	507	12	-114	31
-27	157	-130	-1	31
-29	57	-144	169	31
-62	164	7	102	31
-49	274	120	85	31
52	284	-10	24	31
63	148	-113	-29	31
36	97	-186	70	31
-66	19	-161	108	31
-94	-234	-21	92	31
57	-407	3	50	31
123	-310	46	-42	31
67	-13	117	-109	31
-63	224	85	-28	31
-151	222	-68	-11	31
-122	-57	-116	-69	31
-33	-185	36	2	31
8	-139	143	1	31
26	-178	153	-46	31
42	-78	116	9	31
14	-28	72	33	31
-15	98	99	-18	31
39	411	45	1	31
201	584	26	40	31
188	562	16	6	31
102	289	-188	30	31
39	2	-279	35	31
-80	-71	-281	-2	31
-100	-114	-219	-87	31
-125	-104	-49	-117	31
-159	-45	63	60	31
-173	-263	77	132	31
-85	-512	47	45	31
42	-318	123	80	31
107	102	173	124	31
37	249	160	101	31
-50	45	139	61	31
-89	-210	45	-20	31
-95	-283	-4	-25	31
186	-231	-31	-117	31
286	-228	-113	-212	31
133	-6	-124	-80	31
74	122	-103	-36	31
-44	0	-70	-29	31
-130	-30	26	42	31
-194	-210	27	37	31
-165	-206	113	60	31
-22	72	201	-7	31
-8	392	130	-128	31
-12	464	103	-122	31
-17	36	96	73	31
29	-267	151	176	31
108	-165	170	43	31
89	-19	41	46	31
57	-82	-119	-26	31
-44	-41	-330	-105	31
-97	57	-472	-80	31
-110	49	-361	-113	31
-4	135	-173	-75	31
145	161	-122	-19	31
137	154	-69	41	31
135	155	11	28	31
70	136	57	10	31
-22	59	105	-11	31
-119	-52	96	-78	31
-129	-158	146	-58	31
-47	-257	208	22	31
-77	-143	206	87	31
-120	-24	212	64	31
-57	-49	206	90	31
-24	21	70	150	31
-44	16	-92	61	31
0	26	-162	-72	31
34	149	-317	-128	31
60	274	-309	-103	31
26	530	-123	-71	31
55	608	-42	-42	31
160	427	-9	-9	31
138	148	45	42	31
106	-155	84	66	31
100	-294	77	48	31
49	-353	63	53	31
4	-334	52	49	31
-24	-297	89	46	31
-93	-378	72	6	31
-135	-490	84	2	31
-167	-576	145	59	31
-191	-566	51	112	31
-84	-360	1	169	31
20	-60	-37	66	31
-3	93	-96	36	31
14	192	-14	180	31
30	275	73	62	31
26	164	107	-131	31
59	49	115	-183	31
6	77	138	-238	31
3	182	87	-287	31
77	304	-40	-334	31
67	474	-113	-213	31
12	517	-118	-36	31
-65	270	-69	-16	31
-46	-7	-85	34	31
123	-50	-170	85	31
125	304	-315	89	31
-39	604	-318	127	31
-124	442	-89	137	31
-208	57	-2	81	31
-163	-207	14	3	31
-85	-343	96	-10	31
1	-788	150	10	31
134	-1018	166	16	31
121	-687	133	81	31
148	-342	63	103	31
102	-179	-80	77	31
38	14	-126	59	31
1	523	11	-12	31
-41	915	115	-27	31
6	747	102	20	31
46	174	89	16	31
86	-158	5	-37	31
55	-253	-3	-47	31
84	-510	140	-28	31
63	-523	149	-4	31
-69	-269	84	15	31
-144	-130	-1	2	31
-128	-22	-112	3	31
-52	105	-222	-27	31
-44	146	-219	-47	31
32	198	-103	-6	31
199	280	-91	22	31
207	349	-57	13	31
24	334	21	-4	31
-189	240	65	-5	31
-325	84	56	-39	31
-315	-158	7	-68	31
-235	-307	22	-31	31
-69	-262	50	37	31
66	-112	77	66	31
67	-2	51	27	31
118	26	14	-2	31
105	-16	12	-36	31
61	-64	-11	-65	31
21	103	-75	-19	31
33	283	-113	26	31
133	351	-28	2	31
224	525	60	47	31
135	731	64	57	31
-99	808	11	13	31
-81	389	-9	46	31
-143	-377	-22	7	31
-199	-968	10	-14	31
-72	-1215	74	-11	31
11	-1065	55	-17	31
144	-639	71	36	31
41	-297	63	30	31
-50	-253	-15	-8	31
-36	-93	-83	-22	31
-121	78	-88	-39	31
-53	130	-55	-69	31
-64	432	-44	-64	31
-37	947	19	-12	31
79	1170	29	6	31
50	389	-19	9	31
74	-390	-47	6	31
112	-233	-45	-8	31
91	-149	1	-19	31
-4	-242	-2	-26	31
-46	-171	5	-14	31
-10	-217	12	-14	31
16	-249	31	11	31
29	-68	65	62	31
17	27	74	62	31
26	59	106	58	31
35	150	114	83	31
28	175	62	38	31
-46	244	-32	-24	31
-59	238	-125	-29	31
-34	141	-170	-15	31
-24	71	-102	9	31
-12	-24	-26	-4	31
-32	-120	7	-29	31
-29	-201	33	-38	31
30	-125	61	-22	31
191	62	122	-6	31
256	134	160	-4	31
138	126	103	-3	31
3	136	-24	15	31
-64	119	-109	33	31
-170	136	-173	17	31
-280	221	-151	32	31
-193	49	-85	37	31
-64	-277	-80	-21	31
-31	-379	-29	-31	31
9	-320	22	-29	31
22	-386	41	-41	31
26	-355	75	-9	31
78	-49	81	-14	31
44	-2	14	7	31
-71	-59	-52	14	31
-90	-43	-20	-49	31
-62	-60	1	-31	31
-42	-74	-9	-2	31
34	-69	-20	-7	31
6	14	-42	6	31
24	42	2	13	31
160	105	7	-17	31
117	165	9	-9	31
111	216	64	39	31
142	192	54	39	31
7	65	13	7	31
-130	10	14	8	31
-208	-60	10	9	31
-233	-21	-35	-4	31
-178	74	-28	-12	31
-59	165	-24	-34	31
135	323	-42	7	31
265	436	-5	49	31
202	376	16	38	31
31	90	5	-12	31
-95	-176	15	-42	31
-115	-496	36	-22	31
-196	-757	30	-39	31
-94	-491	42	4	31
122	-163	42	39	31
126	-56	9	9	31
128	103	34	35	31
84	45	38	28	31
-1	-39	23	26	31
-49	34	-18	46	31
-72	33	-87	11	31
45	50	-72	-40	31
80	87	-46	-44	31
53	304	-17	-27	31
59	399	8	-27	31
35	32	-2	-15	31
1	-173	7	-1	31
-99	0	9	22	31
-100	7	6	-14	31
-105	-93	-15	-65	31
-45	-26	-18	-20	31
85	-26	2	39	31
2	29	-32	36	31
20	98	-36	26	31
80	76	24	39	31
42	-65	41	5	31
136	-150	27	-24	31
276	166	15	-14	31
201	246	42	24	31
-55	80	65	37	31
-221	22	34	2	31
-238	-22	22	9	31
-244	-7	0	1	31
-263	-160	-52	-38	31
-201	-204	-85	-65	31
-132	-54	-40	-39	31
-45	-71	-4	-6	31
42	-107	-27	16	31
113	-45	-23	49	31
168	-21	-41	29	31
115	-48	-1	49	31
67	-37	60	43	31
65	20	67	5	31
59	79	40	-17	31
-31	125	-52	-74	31
-93	228	-78	-86	31
-36	251	-19	-26	31
25	44	42	72	31
65	-126	57	50	31
-26	-118	18	-12	31
-110	5	-27	-15	31
-33	192	-48	-28	31
41	263	-31	-8	31
57	175	-7	17	31
85	-6	6	44	31
37	-219	7	62	31
-148	-262	-16	23	31
-150	22	-7	-25	31
-17	171	26	-16	31
75	-282	4	-6	31
145	-740	-32	-29	31
-53	-505	-23	-35	31
-37	-104	3	-28	31
60	-47	1	-14	31
-60	93	6	1	31
120	249	36	8	31
204	448	83	29	31
97	626	118	29	31
-37	508	81	10	31
-88	450	24	2	31
69	350	16	35	31
128	64	-7	48	31
-38	-378	-79	-2	31
-90	-706	-93	-39	31
-158	-679	-102	-81	31
-272	-653	-136	-92	31
-28	-512	-69	-9	31
189	-173	27	41	31
219	122	45	51	31
110	451	22	42	31
-79	565	-19	-30	31
-132	354	-14	-21	31
-140	38	-9	9	31
-188	-113	-49	-4	31
-61	-28	-15	2	31
93	-11	35	-8	31
143	36	27	-36	31
80	118	47	-9	31
-54	129	56	42	31
-58	163	27	54	31
-120	204	9	62	31
-28	205	3	79	31
-12	26	8	58	31
-188	-441	1	-41	31
-80	-864	-16	-85	31
223	-720	22	-50	31
403	-270	59	-23	31
203	27	31	-1	31
89	196	36	7	31
100	232	7	19	31
-41	178	-44	35	31
-82	181	-24	29	31
-124	136	-2	-4	31
-132	46	-7	-14	31
-92	47	-10	-6	31
-150	22	5	-14	31
-110	24	-5	-42	31
-11	36	-43	-62	31
-10	29	-52	-67	31
-6	28	-41	-69	31
57	23	-62	-35	31
160	104	-48	3	31
160	108	-34	24	31
39	1	-27	37	31
-74	-1	-3	-3	31
-152	77	16	-16	31
-138	69	45	39	31
-89	51	38	25	31
-51	27	19	-6	31
11	-12	3	-1	31
8	98	-15	-5	31
-16	133	-13	-1	31
69	27	1	17	31
118	54	1	38	31
109	260	25	81	31
129	578	55	122	31
59	567	22	45	31
-80	418	20	-5	31
-171	445	59	8	31
-90	-113	41	-28	31
-86	-687	-16	-36	31
-122	-823	-10	2	31
100	-806	52	32	31
87	-617	42	-12	31
-46	-603	7	-44	31
-46	-427	-2	-31	31
-48	-326	1	-21	31
68	-208	-16	-4	31
22	143	-21	0	31
13	355	7	9	31
65	560	9	-2	31
-23	429	11	-19	31
0	98	7	-26	31
44	9	-2	-25	31
62	64	1	9	31
20	-67	-36	18	31
-29	-146	-83	-10	31
-24	-21	-87	-26	31
64	79	-49	-10	31
262	344	1	22	31
304	388	2	1	31
168	252	6	-20	31
14	64	-5	-23	31
-158	-183	-45	-33	31
-295	-231	-32	-13	31
-370	-353	-9	-9	31
-240	-379	21	14	31
-66	-269	52	35	31
-25	-148	56	23	31
36	125	59	46	31
26	451	43	50	31
39	462	-17	17	31
31	21	-60	-8	31
6	-254	-45	-30	31
24	-138	-29	-26	31
34	-12	-8	-26	31
37	74	-1	-24	31
9	110	-19	1	31
36	7	-19	-3	31
2	-55	-17	-19	31
1	-85	-16	-26	31
51	-17	26	36	31
7	140	43	51	31
-72	239	29	26	31
-98	343	60	85	31
-46	309	67	38	31
62	243	59	-21	31
182	141	55	-22	31
40	-79	2	-49	31
-24	-285	-25	-9	31
105	-486	-27	6	31
5	-535	-68	-34	31
-36	-360	-65	-19	31
-23	-114	-29	14	31
-91	-47	-29	19	31
-95	-60	-39	6	31
-126	-74	-38	-49	31
-150	-183	5	-64	31
-77	-125	44	2	31
6	2	25	36	31
51	147	12	34	31
39	255	-4	21	31
4	165	-23	16	31
19	195	-8	34	31
34	232	4	39	31
134	203	11	19	31
211	297	10	-15	31
237	320	34	-21	31
155	297	44	-8	31
-44	206	-11	4	31
-132	-7	-32	8	31
-189	-186	-7	-16	31
-137	-320	-1	-6	31
4	-321	-6	32	31
-1	-236	-26	9	31
-124	-171	-19	-14	31
-170	-49	20	7	31
-146	-57	17	-14	31
-22	-254	9	-56	31
176	-270	13	-49	31
208	-160	17	-26	31
125	-39	14	-1	31
39	146	-16	-4	31
140	214	-46	-32	31
256	408	-44	-6	31
148	456	-37	-1	31
38	136	-26	-18	31
-96	-24	-6	-13	31
-264	-237	-27	-22	31
-261	-390	-12	2	31
-176	-302	28	29	31
-89	-191	31	14	31
36	12	59	36	31
103	102	67	75	31
44	145	63	74	31
-49	175	47	52	31
-37	168	7	31	31
-38	189	2	9	31
-33	64	1	-24	31
-23	-62	4	-29	31
-48	-108	16	6	31
-17	-136	-2	-7	31
-8	-176	-11	-36	31
16	-174	16	-28	31
64	-27	-12	-52	31
76	163	-122	-46	31
60	322	-167	-21	31
134	403	-70	-31	31
205	454	-44	-62	31
175	537	-16	-31	31
102	540	84	81	31
-189	274	42	62	31
-415	-149	-9	2	31
-409	-545	-27	-9	31
-222	-953	10	-12	31
20	-898	49	26	31
82	-309	26	31	31
95	-136	21	26	31
42	-504	11	-14	31
84	-513	12	-31	31
64	-161	6	-9	31
-37	7	-11	-12	31
-19	262	-7	12	31
-10	442	20	44	31
135	401	37	39	31
218	459	18	7	31
123	413	1	-1	31
3	328	-5	15	31
-22	129	-8	21	31
16	-138	-4	12	31
-4	-233	-4	-16	31
-32	-342	-29	-50	31
-64	-340	-49	-62	31
-69	-192	-9	-13	31
-34	-94	49	50	31
76	-5	21	16	31
54	95	-7	-15	31
-1	253	9	-17	31
-21	495	19	-26	31
-85	537	78	5	31
17	305	131	37	31
90	219	136	67	31
17	408	50	47	31
-33	365	-79	28	31
-49	32	-141	14	31
-208	-429	-194	-50	31
-264	-1010	-150	-73	31
-74	-908	-19	-4	31
61	-443	30	48	31
92	-262	47	42	31
74	-41	64	61	31
49	37	36	-1	31
52	166	1	-60	31
69	202	-54	-67	31
30	80	-77	-54	31
14	136	-54	3	31
-12	373	-52	24	31
-57	675	-3	69	31
-67	482	59	122	31
-51	39	89	111	31
39	-146	90	-17	31
137	-90	93	-132	31
189	-43	31	-108	31
100	-147	-70	-135	31
-7	-216	-61	-148	31
-57	-280	-70	-73	31
-171	-266	-82	-17	31
-165	-229	-29	21	31
-52	-131	-10	26	31
4	-26	2	42	31
16	12	6	44	31
-3	78	12	26	31
-16	59	42	24	31
-3	84	23	28	31
16	98	9	24	31
84	91	-11	-4	31
214	143	-60	-22	31
249	214	-48	36	31
76	276	12	95	31
-90	215	60	65	31
-224	93	49	9	31
-308	-105	81	-28	31
-235	-303	155	-4	31
-110	-324	136	22	31
50	-156	82	12	31
84	12	-11	-37	31
50	161	-119	-42	31
36	267	-201	14	31
9	175	-165	54	31
71	106	1	49	31
132	48	21	6	31
130	-14	6	22	31
92	-70	21	19	31
104	-93	4	12	31
-20	16	-7	12	31
-174	50	-57	1	31
-114	41	-48	4	31
-113	-84	-20	-23	31
-123	-225	8	-45	31
-48	-245	47	-22	31
-27	-279	36	-34	31
33	-285	62	-71	31
106	-229	55	-44	31
28	-100	-21	-66	31
-16	-21	-25	-46	31
-22	92	-15	5	31
-79	237	-23	16	31
-50	317	-1	46	31
50	347	0	16	31
85	227	-6	12	31
-15	75	22	20	31
20	-130	59	8	31
116	-270	52	-1	31
117	-78	38	-16	31
59	208	16	0	31
42	426	-54	14	31
54	529	-89	59	31
-37	216	-41	90	31
-28	-376	-29	49	31
36	-505	-27	-27	31
139	-206	47	-41	31
157	39	70	27	31
117	327	44	21	31
77	469	-20	-34	31
-62	339	-58	-13	31
-125	57	-3	-2	31
-209	-400	-16	-36	31
-221	-707	-52	-50	31
-201	-818	-63	-51	31
-163	-722	-42	-25	31
-91	-452	27	-11	31
-82	-242	54	-12	31
-5	-16	41	-4	31
-15	105	24	4	31
6	166	-6	14	31
29	229	-47	-27	31
1	246	-24	-16	31
0	287	1	32	31
-62	343	6	18	31
19	448	11	19	31
154	401	-17	7	31
166	184	-11	34	31
108	15	-17	33	31
58	-41	-18	6	31
30	-92	11	36	31
-32	-213	21	45	31
-107	-302	24	50	31
-50	-297	32	60	31
-9	-156	41	14	31
-4	-49	78	-50	31
77	102	117	-82	31
24	284	82	-98	31
62	390	40	-47	31
216	527	-57	-24	31
217	493	-118	6	31
19	328	-118	33	31
-181	62	-136	23	31
-259	-311	-113	6	31
-348	-597	-46	-36	31
-214	-680	61	-36	31
-39	-582	82	-54	31
70	-416	76	-2	31
145	-172	107	27	31
56	160	94	38	31
59	532	55	62	31
53	404	-18	13	31
77	-20	-22	31	31
122	25	-30	17	31
95	168	-76	0	31
125	325	-62	6	31
54	611	-41	26	31
-58	622	-5	78	31
-95	255	-6	50	31
-170	-158	5	-9	31
-209	-525	91	-64	31
-171	-823	152	-82	31
-79	-874	150	-70	31
11	-684	93	-64	31
27	-353	17	-34	31
70	-220	-126	-6	31
45	-64	-300	0	31
19	169	-265	11	31
66	98	-35	36	31
68	92	34	62	31
88	198	65	33	31
100	317	118	-37	31
141	661	74	-15	31
79	748	21	33	31
-50	287	-68	15	31
-61	-131	-139	1	31
-47	-97	-195	11	31
60	117	-119	37	31
129	90	15	22	31
-21	-69	56	-18	31
-100	-158	87	-39	31
-74	-182	91	-19	31
-202	-291	7	-44	31
-251	-425	-57	-119	31
-127	-256	-14	-60	31
21	32	19	26	31
59	65	64	62	31
-3	-180	84	61	31
-22	-249	57	54	31
3	-30	50	36	31
79	73	38	-12	31
79	100	8	16	31
47	93	-48	37	31
31	93	-62	34	31
-20	206	-72	-35	31
-12	350	-57	-79	31
-40	380	-11	-40	31
-130	200	12	-42	31
-129	108	69	-7	31
-77	91	142	15	31
23	25	145	9	31
208	22	70	11	31
303	-168	44	21	31
185	-431	-24	15	31
166	-254	-101	41	31
263	123	-64	72	31
95	185	50	36	31
-90	76	128	16	31
-201	0	99	7	31
-300	-164	15	-6	31
-258	-313	-132	-45	31
-161	-291	-217	-21	31
-44	-125	-254	17	31
-8	39	-198	31	31
9	122	-36	57	31
1	152	49	47	31
-49	165	77	39	31
-19	221	80	29	31
22	243	154	4	31
69	262	147	-42	31
164	234	12	15	31
257	113	-52	93	31
197	-11	-130	-13	31
2	-14	-194	-141	31
-146	85	-118	-105	31
-183	-43	113	-80	31
-189	-237	200	-194	31
-133	-343	120	-133	31
-58	-462	132	14	31
24	-476	107	-19	31
102	-386	57	-28	31
43	-199	-25	52	31
29	179	-151	142	31
38	520	-145	125	31
25	311	-40	35	31
101	-111	-29	1	31
64	-151	-17	-49	31
-7	17	47	-73	31
-2	65	19	-41	31
-54	130	-2	-29	31
-31	172	-21	-24	31
45	27	-27	-6	31
44	50	-52	26	31
-19	119	-128	43	31
-108	125	-110	76	31
-117	-10	-106	122	31
-93	-280	-106	95	31
-89	-354	-58	4	31
-36	-323	49	-44	31
59	-219	251	-6	31
86	-25	303	-1	31
19	165	201	-59	31
0	384	78	-36	31
17	447	-32	16	31
-41	150	-54	-47	31
-65	-19	-25	-38	31
-12	184	47	15	31
44	35	74	-12	31
147	-406	-23	23	31
166	-329	-138	41	31
85	-115	-129	46	31
67	-69	113	50	31
-13	-8	183	60	31
-39	-47	-58	74	31
-21	34	-179	67	31
7	227	-274	106	31
6	251	-274	79	31
-19	251	-29	-49	31
85	333	262	-270	31
60	188	300	-279	31
21	-209	41	-76	31
-86	-461	-107	-54	31
-188	-409	-68	-2	31
-123	-272	42	62	31
-96	-135	49	31	31
-21	17	44	12	31
-22	163	26	6	31
-1	303	-67	7	31
-21	285	-68	-15	31
-48	222	-63	-8	31
41	169	2	32	31
-37	14	26	72	31
-79	-175	-6	44	31
-14	-248	-8	-3	31
75	-144	17	-2	31
126	-168	58	-8	31
56	-308	34	9	31
42	-297	26	35	31
32	-142	17	15	31
-16	66	2	6	31
-55	201	-8	8	31
-83	222	-17	-3	31
-1	177	-3	-29	31
17	227	-1	-57	31
17	308	-1	13	31
31	328	-56	31	31
-58	303	-78	9	31
-90	209	-86	60	31
1	184	-93	54	31
163	110	-46	11	31
226	-57	-29	-42	31
194	-148	90	-5	31
88	-46	229	52	31
-81	-122	223	37	31
-214	-613	234	58	31
-186	-781	257	52	31
-97	-490	59	-2	31
-112	-311	-198	-46	31
-67	-58	-250	-37	31
-19	265	-175	-67	31
-31	275	-115	-138	31
-36	230	-7	-52	31
-22	173	119	81	31
-22	273	120	48	31
16	336	118	-3	31
163	-75	4	-11	31
174	-379	-231	-36	31
122	-282	-397	-24	31
156	44	-371	-29	31
60	160	-232	-64	31
-79	128	6	-86	31
-123	115	222	-50	31
-106	-55	132	-41	31
-97	-198	65	-61	31
-127	-205	14	22	31
-2	47	5	75	31
108	184	-4	70	31
58	193	-47	89	31
4	145	50	90	31
-55	52	54	41	31
-23	249	40	-2	31
69	162	49	-14	31
80	-355	81	-31	31
132	-422	133	-5	31
136	-41	105	29	31
36	-27	36	19	31
-17	-19	26	24	31
-100	60	63	87	31
-159	-84	65	69	31
-210	-64	136	-14	31
-183	-29	123	-47	31
-14	348	-31	-16	31
125	731	37	40	31
95	664	197	2	31
-51	530	-21	-32	31
-132	115	-360	-49	31
-186	-437	-340	-38	31
-99	-894	-375	-1	31
61	-1052	-393	-49	31
257	-857	-111	-75	31
300	-571	89	-19	31
104	-231	183	-5	31
14	-47	117	-50	31
-62	101	112	-4	31
-52	185	129	-14	31
-24	181	55	-4	31
-44	286	41	35	31
-15	287	-21	7	31
-24	272	-24	60	31
-4	222	-19	52	31
0	155	17	45	31
17	141	80	39	31
49	102	125	31	31
126	192	138	11	31
171	249	105	-73	31
58	235	66	-34	31
-39	264	-16	31	31
-123	388	-65	19	31
-199	414	-78	27	31
-191	2	-52	40	31
-160	-328	-35	11	31
-75	-251	-9	26	31
48	-164	19	67	31
149	-141	-42	36	31
151	-160	-95	-70	31
7	-302	-125	-115	31
-7	-290	-23	-27	31
89	-191	115	-19	31
-21	-107	33	-16	31
-140	-41	-23	35	31
-110	-64	-32	-39	31
-92	29	-2	-123	31
-52	317	64	-103	31
26	647	102	-28	31
52	247	92	3	31
29	-453	-67	10	31
3	-424	-127	10	31
31	-300	-127	52	31
69	-187	-49	77	31
111	141	42	60	31
150	244	34	39	31
256	398	126	12	31
429	585	214	18	31
382	466	110	28	31
24	229	-90	38	31
-325	-127	-190	-2	31
-546	-438	-266	-25	31
-633	-671	-199	-16	31
-423	-860	-20	11	31
-186	-718	125	17	31
62	-364	167	-22	31
160	-39	141	-33	31
117	64	154	-39	31
133	42	79	-22	31
61	119	-1	-17	31
71	144	-145	-44	31
45	182	-183	-10	31
22	204	-109	20	31
-14	204	-125	16	31
-15	229	-57	41	31
38	184	7	41	31
18	167	44	6	31
49	135	11	0	31
16	91	-45	11	31
17	61	-32	3	31
5	45	-21	26	31
-32	54	39	10	31
-29	64	122	-40	31
-18	75	206	-55	31
31	55	265	-40	31
32	105	161	-19	31
24	170	2	-14	31
14	151	-82	82	31
12	95	-158	116	31
1	-6	-152	23	31
17	-110	-17	-29	31
41	-201	-1	-64	31
24	-247	-85	-46	31
-4	-208	-77	-5	31
-26	-154	-80	8	31
-13	-59	-13	25	31
-7	4	65	68	31
30	12	75	67	31
10	36	129	-4	31
-41	22	115	6	31
-65	20	34	1	31
-75	29	12	-14	31
-24	70	11	2	31
20	176	-2	3	31
110	180	-34	3	31
98	80	-45	-17	31
-1	-32	-27	-22	31
6	-85	50	-24	31
-59	-101	148	-55	31
-120	-219	62	-80	31
-81	-176	-74	-37	31
-69	176	-151	-25	31
12	378	-199	-6	31
50	107	-163	-4	31
19	-233	-69	6	31
31	-136	62	49	31
-12	-16	69	33	31
-11	-282	17	40	31
-26	-341	41	14	31
-32	-37	55	58	31
100	184	54	127	31
99	160	118	71	31
-32	-105	295	34	31
-51	-95	188	32	31
-47	56	-200	22	31
1	-23	-357	-82	31
54	-57	-419	-176	31
18	-209	-375	-180	31
5	-255	-138	-170	31
14	-108	108	-30	31
-34	-148	180	4	31
-88	-123	127	-31	31
-37	-39	100	39	31
-16	44	63	10	31
55	158	97	-13	31
198	135	114	11	31
150	78	122	54	31
-20	151	109	81	31
-119	262	44	79	31
-158	140	-11	66	31
-164	21	-47	75	31
-96	33	-42	68	31
-4	-52	-32	-5	31
44	-51	-27	-63	31
51	124	1	-79	31
70	251	23	-44	31
103	272	-4	16	31
111	304	-3	87	31
44	283	-38	50	31
11	279	-75	50	31
-9	169	-47	75	31
-112	-129	-14	-7	31
-149	-335	9	-24	31
-132	-418	8	-44	31
-24	-365	29	-117	31
62	-267	26	-92	31
31	-182	37	37	31
51	-186	49	49	31
21	-275	38	-4	31
21	-115	83	-24	31
88	90	122	-64	31
57	148	32	-24	31
-26	231	-62	44	31
-66	216	-87	59	31
-77	60	-135	29	31
-121	-174	-110	-1	31
-67	-293	-55	-5	31
29	-145	-20	24	31
96	87	-10	40	31
134	414	19	14	31
57	643	78	-8	31
11	244	57	-48	31
18	-359	2	-64	31
9	-300	-57	-58	31
36	-3	-58	-37	31
100	41	-34	3	31
68	366	0	17	31
-1	505	211	57	31
2	294	374	77	31
-156	316	231	30	31
-245	100	-22	35	31
-158	-288	-270	95	31
-103	-551	-452	21	31
-123	-644	-404	-117	31
-154	-651	-168	-145	31
39	-631	84	-166	31
239	-328	277	-102	31
205	-80	268	32	31
92	9	50	11	31
52	100	-113	1	31
7	108	-190	22	31
-36	117	-198	22	31
-17	179	-60	74	31
-12	284	49	62	31
4	378	80	38	31
19	388	74	56	31
-26	393	78	58	31
-58	387	85	4	31
-38	164	81	-23	31
-26	-95	58	-20	31
34	-84	7	-16	31
97	-260	-5	22	31
64	-506	12	51	31
6	-128	39	29	31
-44	306	16	-6	31
-46	412	-30	-19	31
18	182	-50	-45	31
103	-193	22	-12	31
196	-67	62	20	31
242	6	46	22	31
247	-97	85	27	31
127	-34	-64	-19	31
-36	-43	-178	-54	31
-279	-17	-162	-103	31
-464	-154	-123	-32	31
-375	-214	-36	60	31
-332	-74	7	-37	31
-234	-234	103	-67	31
-204	-566	59	-23	31
-3	-632	24	26	31
214	-271	64	36	31
128	-80	18	-4	31
170	74	21	7	31
124	290	-7	-18	31
100	261	21	-8	31
86	245	44	49	31
48	55	18	30	31
90	-26	12	31	31
59	85	-16	41	31
10	165	-47	21	31
-24	244	-53	-2	31
-11	163	-14	-8	31
-11	77	27	2	31
17	112	58	-1	31
8	118	45	-8	31
-7	101	41	19	31
-3	113	51	57	31
-41	108	14	44	31
-64	136	-36	25	31
-64	217	-70	21	31
15	374	-82	-4	31
35	449	-59	-37	31
-8	290	-23	-77	31
-11	110	3	-110	31
-43	-139	24	-90	31
-35	-466	69	-38	31
-1	-646	118	-2	31
64	-583	72	52	31
132	-353	14	48	31
84	-214	-69	22	31
54	-112	-155	64	31
-11	34	-214	84	31
-37	51	-232	81	31
27	-44	-123	47	31
54	-80	-48	9	31
137	30	95	42	31
161	126	307	71	31
56	229	467	-12	31
-95	299	421	-120	31
-204	180	155	-135	31
-287	19	-149	-170	31
-306	-142	-358	-142	31
-174	-173	-295	-38	31
-57	-117	-199	-1	31
-2	-99	-47	15	31
62	-54	122	34	31
117	-83	41	51	31
158	-92	-88	32	31
150	4	-110	19	31
55	103	-65	44	31
-5	227	60	60	31
67	383	168	76	31
259	312	141	99	31
233	20	94	59	31
-36	55	14	-48	31
-151	82	-74	-105	31
-253	-219	-40	-113	31
-299	-186	90	-132	31
-161	-84	143	-75	31
-4	-108	40	-31	31
108	-136	-55	4	31
143	-147	-133	103	31
97	158	-184	90	31
7	304	-146	5	31
-51	237	-106	-19	31
-106	64	-80	20	31
-100	-303	-25	77	31
-8	-403	4	120	31
58	-332	4	72	31
79	-346	58	-7	31
89	-212	72	-31	31
57	7	56	-28	31
-2	74	26	-21	31
-65	93	-6	-31	31
-112	64	49	-29	31
-104	-9	132	-76	31
-75	-10	98	-94	31
-7	85	-9	-12	31
12	193	-69	19	31
50	271	-145	19	31
88	480	-135	33	31
-16	730	-6	59	31
-1	663	120	74	31
122	288	82	27	31
137	137	-21	-18	31
122	14	-34	4	31
46	-512	-101	22	31
-123	-829	-156	-46	31
-205	-747	-72	-70	31
-168	-374	111	1	31
-32	-107	142	42	31
14	-334	45	65	31
-46	-417	4	55	31
-7	-328	-12	-43	31
39	-120	61	-156	31
78	150	150	-105	31
69	198	209	27	31
52	165	84	50	31
58	111	-74	39	31
32	269	-21	-14	31
24	275	3	-19	31
-35	156	15	34	31
-107	314	22	42	31
-94	370	-10	54	31
-15	247	-74	14	31
14	113	-71	-26	31
53	21	-7	29	31
108	-172	48	27	31
47	-315	19	-39	31
44	-255	-43	-8	31
80	-123	107	40	31
39	62	254	46	31
-23	113	105	35	31
-117	-69	-242	14	31
-118	-278	-448	21	31
-70	-188	-451	-54	31
-70	-32	-310	-160	31
-30	-95	-63	-128	31
2	-152	57	-42	31
36	29	126	-7	31
75	235	162	41	31
85	103	108	71	31
58	146	79	45	31
16	329	69	26	31
14	386	89	39	31
35	700	114	68	31
131	957	57	19	31
216	715	-32	-31	31
113	183	-75	-29	31
-131	44	-65	-22	31
-281	-71	-20	-7	31
-319	-783	-19	-21	31
-353	-1210	-39	-29	31
-233	-1132	14	-27	31
-14	-943	137	-36	31
46	-687	198	-22	31
115	-363	176	67	31
183	-95	165	95	31
106	-22	72	55	31
79	81	-28	65	31
36	131	-98	24	31
29	252	-204	-36	31
63	502	-195	-27	31
30	647	-62	9	31
17	393	87	-31	31
29	-34	79	-16	31
20	-67	-124	24	31
-14	66	-264	15	31
-32	242	-270	21	31
-82	372	-58	-6	31
-80	146	281	-79	31
-21	-115	358	-165	31
9	54	205	-99	31
59	58	6	-17	31
92	-156	-61	10	31
78	-50	-53	29	31
26	-48	-60	-11	31
-54	-103	-91	18	31
-82	-84	-113	34	31
-9	-74	-42	44	31
40	-36	-3	44	31
72	-50	13	36	31
64	-45	23	46	31
6	-49	101	-8	31
-7	-16	198	-42	31
-78	-6	71	-38	31
-112	26	-95	-24	31
-20	160	-182	-14	31
50	233	-189	8	31
22	203	-34	21	31
-17	93	82	16	31
-30	25	90	23	31
-113	-26	28	22	31
-157	6	-92	-20	31
-97	106	-148	-29	31
-21	2	-55	35	31
21	-4	54	38	31
11	63	26	24	31
-31	-236	-4	-17	31
14	-629	-6	-43	31
141	-533	24	30	31
155	-62	84	54	31
135	-26	122	36	31
79	-54	168	3	31
10	100	170	-11	31
79	74	63	12	31
96	226	-71	-4	31
37	248	-142	-19	31
-10	193	-191	10	31
-72	160	-166	4	31
-161	37	-89	-10	31
-208	-54	17	-22	31
-125	-176	115	-39	31
-29	-52	188	-1	31
-13	158	164	22	31
-11	124	-7	11	31
11	-141	-113	4	31
-11	-198	-141	17	31
-8	93	-89	23	31
40	159	-34	-20	31
72	108	31	-46	31
136	168	75	-32	31
273	37	-3	-30	31
357	-31	-19	-12	31
146	-29	-63	-6	31
-92	42	-63	-6	31
-175	182	-2	17	31
-276	-82	11	37	31
-290	-294	50	61	31
-266	-293	58	21	31
-138	-182	69	-1	31
-34	213	70	6	31
-44	760	58	8	31
14	517	32	7	31
26	-588	-20	-9	31
65	-682	-22	-14	31
89	-44	-42	-40	31
123	-76	-85	-50	31
175	-380	-90	-57	31
133	-275	-73	-37	31
79	-25	-7	-12	31
0	32	38	5	31
-18	119	32	33	31
-64	162	24	29	31
-114	118	6	14	31
-129	125	17	19	31
-116	64	56	34	31
-11	-24	130	25	31
38	-92	185	3	31
55	-153	145	-39	31
52	-177	72	-38	31
76	-191	-67	-12	31
77	-26	-216	-1	31
-1	174	-244	9	31
-41	219	-153	17	31
-57	341	-37	47	31
-87	363	-31	30	31
-59	252	-7	-5	31
52	122	65	-13	31
72	-92	135	-36	31
106	-145	136	-26	31
155	-167	18	-7	31
137	-102	-3	17	31
174	88	-37	43	31
97	179	-158	32	31
-42	319	-128	41	31
-110	352	-41	9	31
-205	416	-29	-37	31
-266	70	-35	-22	31
-263	-725	-57	-44	31
-193	-799	-37	-26	31
-34	-492	48	15	31
-24	-220	67	-9	31
-44	-27	47	1	31
12	-164	40	3	31
22	-208	36	9	31
103	186	75	29	31
150	591	108	36	31
142	437	84	36	31
54	558	34	29	31
-42	1031	19	17	31
-42	287	2	-11	31
-50	-757	-49	-25	31
-28	-615	-61	-11	31
50	-548	-68	14	31
65	-653	-84	-32	31
-23	-441	-35	-104	31
4	-454	14	-64	31
37	-140	12	6	31
34	216	21	-12	31
53	336	51	-21	31
22	244	82	17	31
13	-52	63	36	31
-6	81	4	34	31
73	122	-19	39	31
153	308	32	29	31
121	690	82	0	31
143	690	69	14	31
54	526	37	33	31
-149	169	-18	-4	31
-223	-7	-108	-13	31
-300	-244	-241	-37	31
-302	-870	-255	-55	31
-151	-1049	35	-17	31
6	-575	181	-12	31
60	-242	14	-3	31
60	-161	-68	21	31
75	26	-62	-4	31
-12	97	24	-79	31
4	153	122	-59	31
57	213	84	4	31
34	181	-54	-17	31
14	192	-95	54	31
7	150	-11	72	31
34	138	-14	7	31
49	136	-42	-2	31
61	101	-65	-31	31
31	73	-29	2	31
1	42	63	60	31
-36	27	37	89	31
-55	22	-44	44	31
-29	59	-69	-11	31
2	75	-75	-26	31
23	68	-52	2	31
37	97	47	58	31
83	160	173	64	31
80	320	198	11	31
79	556	168	-39	31
107	688	125	-22	31
29	676	0	-9	31
-113	303	-70	-48	31
-207	-339	-49	-57	31
-188	-596	-49	-31	31
-148	-673	-41	-39	31
-115	-1125	-83	-44	31
-7	-1240	-134	-20	31
84	-656	-82	23	31
119	-287	-3	54	31
105	-96	11	31	31
52	322	-12	12	31
-33	575	-17	9	31
-57	311	7	-7	31
-13	-157	60	-2	31
57	-193	120	26	31
166	123	145	56	31
144	308	112	57	31
-5	246	20	36	31
-130	126	-70	-9	31
-151	-4	-51	-34	31
-105	-100	-8	-54	31
-54	-28	-7	-67	31
25	67	9	-14	31
41	78	-45	16	31
0	316	-128	18	31
-31	578	-108	7	31
-51	193	-34	-15	31
-26	-368	-8	-22	31
7	-359	-10	-7	31
100	-237	-18	20	31
123	-193	-22	12	31
63	-48	21	-9	31
117	-12	50	-11	31
31	-5	29	-29	31
-88	-23	36	-42	31
-64	-24	12	-1	31
-87	-76	-99	39	31
-56	-174	-104	30	31
12	-45	-4	27	31
27	50	59	-4	31
50	70	26	-14	31
37	239	8	16	31
25	397	32	0	31
24	490	54	3	31
-48	494	85	19	31
-63	362	40	2	31
-54	158	-35	-27	31
-62	-173	-68	-30	31
23	-479	-24	-6	31
79	-614	11	15	31
76	-610	18	44	31
42	-371	36	58	31
-37	-182	12	37	31
-95	-95	-6	4	31
-73	-9	-4	-32	31
-19	-17	-3	-110	31
-8	75	-1	-81	31
9	89	-4	37	31
4	79	-32	38	31
9	322	-6	32	31
-9	714	39	28	31
-59	605	69	37	31
9	-7	120	62	31
107	113	110	13	31
140	549	77	-14	31
108	275	14	-44	31
31	-254	-41	-41	31
14	-502	-46	-21	31
27	-649	-88	-41	31
-127	-683	-172	-38	31
-153	-455	-155	-33	31
12	-131	-86	-47	31
-32	345	-63	-42	31
-48	651	97	3	31
-87	623	172	11	31
-201	430	103	22	31
-166	135	75	31	31
-133	-192	-50	1	31
-23	-948	-171	0	31
106	-1318	-130	11	31
148	-656	-31	19	31
184	-242	-3	24	31
158	-159	0	34	31
21	108	-32	23	31
-46	142	-59	15	31
-4	110	-32	43	31
-5	137	-40	-4	31
9	103	-5	-62	31
32	255	77	-18	31
65	374	108	27	31
57	409	43	44	31
42	302	-26	13	31
92	214	-26	-29	31
61	322	27	-11	31
-11	284	56	26	31
-44	117	3	14	31
-50	-88	22	-17	31
-64	-13	84	18	31
-76	-12	141	22	31
-50	-165	204	-3	31
-72	-69	224	-1	31
-80	-140	148	-25	31
-18	22	1	-5	31
82	477	-133	-19	31
75	708	-305	-17	31
0	862	-365	53	31
62	649	-249	21	31
26	-32	-93	0	31
-108	-694	-41	-19	31
-199	-1006	-4	-42	31
-132	-912	110	-11	31
-24	-801	114	-61	31
-98	-668	83	-55	31
16	-444	55	-9	31
107	-340	77	-19	31
92	-151	122	12	31
113	59	45	1	31
62	191	-44	-36	31
40	291	-113	-24	31
-34	307	-191	-8	31
-31	269	-168	31	31
10	209	-3	67	31
17	133	6	20	31
39	32	-80	-10	31
17	84	-2	11	31
-14	493	65	18	31
-37	907	133	62	31
37	510	128	91	31
74	-452	74	82	31
-7	-685	-13	41	31
46	-299	-82	19	31
84	-190	5	2	31
-27	-15	80	-32	31
-67	52	130	-65	31
-86	-127	84	-66	31
-69	-29	-64	10	31
-11	-47	-167	23	31
-4	-4	-247	-11	31
22	109	-212	-53	31
57	149	96	-104	31
98	326	282	-115	31
121	444	175	-45	31
96	668	94	-1	31
-22	865	20	-17	31
-157	790	1	11	31
-140	196	22	7	31
-155	-500	14	41	31
-165	-423	-11	69	31
9	-372	-56	35	31
149	-930	-62	14	31
155	-1170	-62	8	31
91	-790	-25	20	31
-12	-140	45	39	31
-110	155	87	55	31
-115	-268	99	52	31
-22	-558	85	16	31
1	-280	27	-19	31
-9	-30	-40	2	31
14	96	-107	-57	31
-36	305	-151	-113	31
-34	298	-105	-69	31
14	252	-74	-8	31
6	174	-68	36	31
37	52	-21	33	31
41	221	24	54	31
16	281	32	39	31
-14	404	2	2	31
-56	532	-34	-22	31
-59	212	-39	-9	31
-17	-93	-14	42	31
65	-195	39	22	31
134	-224	128	13	31
183	25	227	46	31
117	361	240	8	31
-27	138	113	-42	31
-86	-75	-15	-16	31
-123	108	-138	7	31
-110	-211	-248	7	31
-12	-554	-239	12	31
128	-141	-135	1	31
255	335	-7	11	31
103	553	61	40	31
-222	599	45	27	31
-350	185	-11	-22	31
-367	-456	-7	-41	31
-297	-724	-12	-63	31
-47	-716	-15	-77	31
229	-533	-20	-60	31
276	-28	-57	-22	31
145	317	-57	10	31
42	-13	-41	-12	31
46	-209	9	-2	31
36	156	100	37	31
-11	-257	129	24	31
2	-441	62	9	31
-8	295	18	30	31
1	479	12	28	31
-27	400	-24	3	31
-48	-32	-56	-15	31
29	-275	-39	11	31
85	290	-64	26	31
90	532	-94	-6	31
90	292	-55	19	31
117	-65	-59	67	31
61	21	-97	56	31
-22	83	-39	41	31
-108	-37	36	19	31
-137	-128	116	-37	31
-80	-47	242	-68	31
-82	259	282	-73	31
-37	-436	237	-105	31
62	-718	110	-64	31
27	-242	22	2	31
-48	-246	-5	-21	31
-30	-65	-29	-2	31
-23	19	-29	-19	31
15	15	-43	12	31
32	118	-33	55	31
-9	113	-30	50	31
-7	145	-9	73	31
12	197	-24	-11	31
29	521	-57	-44	31
-31	828	-59	-17	31
-36	231	-82	-21	31
-32	-596	-73	-15	31
-88	-414	-27	26	31
-84	92	-1	49	31
-42	270	10	50	31
-21	229	-19	54	31
-30	-29	-44	24	31
62	41	-17	12	31
147	-158	-7	-21	31
138	-347	12	-21	31
79	361	12	-55	31
52	309	4	-77	31
-2	-134	26	3	31
-6	-69	3	-4	31
63	-130	24	-3	31
-23	-366	54	17	31
-64	-754	76	19	31
-110	-472	98	30	31
-140	-337	-16	32	31
-85	-456	-204	53	31
-66	73	-323	38	31
29	363	-328	-12	31
50	295	-121	-130	31
114	64	155	-195	31
135	191	241	-79	31
43	261	209	37	31
92	74	132	41	31
50	131	35	54	31
11	49	-12	64	31
4	317	-59	57	31
-55	564	-63	52	31
-84	125	-1	-4	31
-80	-442	13	-36	31
-21	-424	-3	7	31
-17	-181	3	29	31
-33	-145	-76	-71	31
-53	261	-70	-26	31
-27	339	39	75	31
-42	277	65	69	31
-173	788	49	61	31
-213	399	-34	5	31
-42	-915	-63	0	31
104	-834	-20	-12	31
135	-115	51	-48	31
285	-75	102	-79	31
193	428	97	-59	31
-29	182	57	13	31
30	-291	14	46	31
85	5	7	9	31
148	14	-55	-40	31
-3	178	-95	-22	31
-141	147	-26	-31	31
20	-13	-2	-14	31
6	-49	-36	25	31
-82	184	46	79	31
-170	588	168	106	31
-147	37	158	29	31
-56	-424	90	-41	31
-75	-89	123	-56	31
-60	-540	183	-33	31
-90	-717	106	1	31
-115	-133	-105	4	31
-1	-395	-321	-29	31
130	-333	-454	87	31
167	-162	-462	144	31
120	-41	-249	-60	31
97	216	-15	-191	31
67	109	52	-130	31
-31	340	74	-46	31
-14	306	115	-19	31
-7	244	129	-6	31
24	265	129	21	31
143	370	104	49	31
240	604	-19	32	31
137	720	-122	69	31
-167	1029	-153	79	31
-257	699	-101	10	31
-298	-175	1	-42	31
-254	-1092	59	-53	31
-106	-1585	102	18	31
50	-1153	125	41	31
190	-629	145	17	31
116	-215	136	39	31
44	255	54	48	31
-26	265	-26	36	31
59	3	-31	24	31
221	49	39	2	31
204	155	122	-41	31
41	115	87	-33	31
-67	152	79	10	31
-102	93	198	0	31
-261	-2	202	1	31
-191	92	82	65	31
-65	174	-42	92	31
-27	148	-226	-15	31
18	67	-348	-110	31
-29	5	-247	-117	31
39	-34	-69	-64	31
102	52	17	17	31
53	214	-48	19	31
-43	229	-107	35	31
-42	150	-115	34	31
-26	37	-122	-5	31
-36	-165	-64	-10	31
9	-335	31	-55	31
-6	-332	101	-103	31
33	-187	103	-27	31
63	63	82	105	31
81	272	81	87	31
87	479	111	35	31
44	404	167	-47	31
-12	76	186	-74	31
-16	423	128	21	31
141	525	4	9	31
115	2	-160	12	31
-10	49	-214	-5	31
-19	-31	-109	-23	31
-72	-200	-66	-35	31
-141	-583	-86	-45	31
-179	-1068	-1	-2	31
-68	-482	180	15	31
28	123	204	28	31
-29	231	6	1	31
-66	-108	-159	39	31
24	-312	-256	47	31
37	-72	-253	-2	31
-18	-247	-64	3	31
99	-105	128	6	31
-1	233	74	-3	31
-175	117	-41	15	31
-118	-124	2	77	31
-32	-10	53	80	31
52	287	148	-39	31
117	190	267	-185	31
155	219	183	-89	31
104	90	-82	2	31
-61	-88	-170	-20	31
-120	-77	138	41	31
63	-131	342	26	31
191	-2	6	34	31
182	-25	-201	50	31
59	2	-251	61	31
-26	118	-268	8	31
-36	204	-100	-70	31
-134	133	-42	5	31
-101	-26	-1	47	31
32	31	-64	85	31
108	157	-8	72	31
-79	214	45	-42	31
-186	-3	45	-55	31
-77	-25	46	-27	31
-71	29	5	-20	31
-117	-138	16	-64	31
-185	-148	4	-97	31
-62	-254	132	-24	31
31	-466	137	36	31
0	-366	52	36	31
24	-68	6	29	31
20	-22	-44	-20	31
45	41	-39	-26	31
100	161	-16	-1	31
92	246	22	-45	31
94	593	32	-6	31
103	589	24	54	31
16	207	-27	49	31
-34	54	-85	4	31
-90	-191	-127	-24	31
-145	-495	-103	31	31
-60	-518	-8	58	31
41	-492	2	45	31
143	-169	17	39	31
205	352	131	-9	31
193	535	84	7	31
161	447	-39	84	31
111	247	-46	36	31
180	262	-116	-72	31
167	224	-175	-78	31
7	-188	-66	30	31
-101	-410	93	-26	31
-315	-264	194	-120	31
-482	-373	191	-29	31
-492	-613	109	-1	31
-272	-404	77	-57	31
1	-130	40	-105	31
59	64	3	-38	31
98	105	-19	54	31
51	55	-64	37	31
39	77	20	32	31
94	67	85	50	31
110	143	42	78	31
84	102	-87	104	31
42	82	-173	118	31
76	125	-166	37	31
39	189	-151	-103	31
13	303	-16	-174	31
9	312	71	-138	31
6	371	94	-61	31
-9	196	176	-13	31
-34	-150	296	64	31
-12	-223	194	92	31
-6	-127	-19	44	31
52	82	39	24	31
52	270	-33	-4	31
16	155	-196	-27	31
22	-11	-249	-10	31
51	-118	-383	-6	31
69	-216	-452	7	31
-35	-255	-300	9	31
-118	-330	-42	55	31
-145	-305	136	108	31
-145	-310	267	1	31
-53	-292	329	-146	31
62	-90	269	-87	31
53	70	126	-9	31
48	184	21	-19	31
125	391	21	63	31
166	437	22	33	31
213	176	9	-4	31
110	273	-38	38	31
-102	594	-100	31	31
-229	330	-120	26	31
-272	-21	-96	23	31
-313	-342	-59	31	31
-231	-694	4	19	31
21	-682	68	21	31
108	-677	49	2	31
115	-312	31	-4	31
133	336	-16	-5	31
118	373	-44	-37	31
59	-39	9	-26	31
-46	-284	51	-13	31
-49	-130	117	-34	31
-39	-7	96	-23	31
26	42	6	13	31
107	148	-39	-34	31
112	101	-63	-59	31
52	136	-42	-34	31
-10	141	-29	-15	31
-20	138	-2	-5	31
-82	251	47	-21	31
-55	198	7	-21	31
-39	136	-34	-24	31
-57	123	-9	17	31
-4	74	-24	57	31
-27	16	-37	54	31
-1	-24	-24	56	31
49	-38	-11	32	31
60	-77	11	17	31
104	-98	22	19	31
117	-49	32	26	31
121	85	41	44	31
194	315	57	55	31
303	480	29	41	31
205	445	-19	18	31
-69	280	-44	-13	31
-246	-6	-92	-71	31
-368	-288	-92	-89	31
-390	-497	-18	-53	31
-359	-664	45	-53	31
-288	-547	31	-22	31
1	-237	-24	-4	31
132	-104	-16	3	31
89	-300	21	37	31
37	-373	25	27	31
-47	-63	49	49	31
77	-24	62	16	31
181	108	64	-32	31
119	473	65	-38	31
45	251	42	2	31
-73	41	-27	6	31
-138	424	-85	-21	31
-134	816	-59	36	31
-168	304	3	15	31
-73	-719	60	2	31
215	-774	49	19	31
380	-253	19	22	31
405	-396	-47	36	31
305	-190	-85	35	31
151	695	-68	50	31
97	1029	-140	55	31
-61	1005	-211	70	31
-164	546	-234	74	31
-201	-77	-101	-2	31
-304	-599	130	-137	31
-294	-1027	223	-229	31
-234	-952	208	-219	31
-128	-827	110	-74	31
-135	-644	111	1	31
-16	-456	178	-72	31
143	-266	36	-52	31
83	-27	-81	-5	31
125	137	-112	38	31
108	302	-138	59	31
168	379	120	45	31
219	691	427	19	31
143	1008	301	-7	31
7	773	-27	19	31
-203	192	-226	8	31
-253	-86	-437	8	31
-186	-228	-409	21	31
-90	-543	-170	47	31
7	-457	-7	90	31
120	-254	18	64	31
80	-170	14	31	31
-17	11	50	28	31
-23	69	13	29	31
-46	123	79	13	31
-8	178	113	-8	31
-11	218	86	31	31
-7	290	37	37	31
56	327	-17	17	31
129	312	-60	16	31
161	236	-6	-61	31
102	182	121	-89	31
10	204	75	-24	31
-155	322	-33	45	31
-171	316	-119	63	31
-53	101	-75	70	31
-46	-97	-25	74	31
-33	-336	39	5	31
-62	-628	60	-74	31
-93	-794	-31	-109	31
-26	-691	-17	-128	31
24	-383	-34	-80	31
32	-163	-56	4	31
17	-17	-29	9	31
81	105	67	48	31
70	211	117	51	31
45	325	165	24	31
225	408	215	7	31
341	517	46	-59	31
309	521	-49	-33	31
107	398	-51	14	31
-183	229	-84	5	31
-365	-112	-89	-51	31
-509	-564	-109	-140	31
-480	-746	-121	-59	31
-190	-543	-58	77	31
34	-312	32	22	31
80	-129	44	-12	31
122	2	37	37	31
133	23	51	62	31
153	63	72	92	31
99	54	55	43	31
57	47	66	-4	31
79	83	153	0	31
-13	129	72	-11	31
-54	217	-129	1	31
-41	248	-169	-21	31
-27	175	-163	-46	31
-85	99	-125	-26	31
-54	108	-32	17	31
39	63	-49	61	31
86	-5	-64	20	31
120	108	-12	-24	31
74	342	14	22	31
48	426	29	50	31
-42	113	36	56	31
4	-225	1	49	31
34	-155	4	-24	31
-49	-189	-7	-72	31
-11	-432	15	-20	31
-17	-379	108	-8	31
36	-161	114	-29	31
67	-11	113	11	31
-29	9	78	34	31
-178	36	-3	29	31
-185	151	-9	7	31
-21	123	7	35	31
234	67	32	69	31
487	209	13	-11	31
378	464	-43	-62	31
189	490	-68	-62	31
92	209	-83	-78	31
-147	-196	-125	-79	31
-455	-335	-161	-37	31
-552	-113	-94	13	31
-455	-460	-18	-12	31
-341	-897	-16	-12	31
-89	-523	34	21	31
153	-365	102	59	31
206	-468	97	29	31
113	-178	105	-27	31
88	52	123	4	31
117	138	88	12	31
97	251	69	54	31
100	160	19	64	31
91	20	-51	52	31
120	19	-79	42	31
37	155	-21	28	31
49	340	36	36	31
12	336	-53	-49	31
-144	185	-117	-117	31
-130	110	-98	-107	31
-135	13	-69	-62	31
-1	-135	-33	-6	31
87	-131	49	41	31
56	-119	163	52	31
72	-77	160	32	31
137	180	119	41	31
203	509	113	-13	31
72	752	-17	-62	31
98	859	-175	-27	31
166	803	-267	4	31
-36	490	-312	-7	31
-261	-37	-184	0	31
-313	-442	12	89	31
-252	-625	114	105	31
-311	-769	110	16	31
-284	-983	-9	-23	31
-52	-983	-123	3	31
52	-763	-148	47	31
79	-598	-118	10	31
137	-370	29	-66	31
59	-105	165	-124	31
51	119	215	-172	31
38	217	216	-100	31
-18	267	157	-30	31
26	315	79	-16	31
25	289	16	32	31
60	298	-29	11	31
103	393	-53	-9	31
99	465	10	36	31
29	337	104	47	31
-19	144	254	31	31
-47	166	276	62	31
-60	305	167	85	31
-22	301	-27	56	31
-31	292	-325	39	31
-60	267	-381	37	31
-51	109	-241	28	31
-48	-188	-97	6	31
-36	-398	26	20	31
69	-303	112	-21	31
49	-340	60	-89	31
-37	-314	-31	-60	31
9	-130	-37	-30	31
59	28	-76	-22	31
84	164	-120	-1	31
70	-91	-105	-1	31
16	-330	-2	3	31
-32	-112	74	24	31
-46	59	58	16	31
-55	-156	1	7	31
-30	-203	-19	2	31
32	-42	-40	-6	31
72	21	-19	37	31
62	123	51	47	31
9	90	60	-19	31
19	67	7	-74	31
3	96	-73	-97	31
-32	115	-69	-75	31
-9	155	-58	-25	31
-6	98	16	29	31
22	64	66	26	31
46	26	45	-1	31
37	0	82	32	31
12	58	44	59	31
-85	289	12	55	31
-247	751	12	41	31
-138	1008	69	132	31
131	563	138	176	31
208	-79	125	54	31
178	-207	80	-48	31
77	-261	-14	-142	31
135	-731	-38	-193	31
117	-967	-39	-92	31
-90	-527	-57	-6	31
-168	-402	-48	7	31
-207	-473	-115	16	31
-261	-275	-146	1	31
-266	-355	-43	54	31
-116	-135	135	92	31
2	169	297	31	31
51	179	325	-19	31
140	257	212	-32	31
131	227	153	-23	31
17	223	9	-42	31
-132	0	-403	-65	31
-104	-296	-625	-27	31
14	-264	-418	30	31
66	21	-193	34	31
123	240	-135	31	31
168	237	-2	87	31
194	370	97	105	31
122	386	105	67	31
32	355	145	16	31
-59	271	116	-38	31
-120	-42	13	-87	31
-123	-125	-59	-101	31
-108	-103	-29	-64	31
-17	-218	3	-79	31
135	-273	65	-29	31
259	-10	104	62	31
221	178	43	61	31
73	72	16	11	31
-44	6	-15	-2	31
-55	-46	-22	40	31
-157	-91	-21	-53	31
-252	-332	-74	-49	31
-233	-466	-58	39	31
-80	-179	65	-21	31
-16	48	87	-65	31
-122	100	28	-86	31
-52	48	74	-19	31
-87	-56	90	33	31
-65	-178	56	8	31
44	-199	44	56	31
122	-62	69	67	31
138	19	95	53	31
71	109	171	61	31
110	278	319	90	31
52	438	328	130	31
9	525	127	125	31
-31	405	-140	88	31
-38	100	-277	-93	31
27	-64	-350	-257	31
62	39	-369	-208	31
81	114	-227	-153	31
122	192	-192	-76	31
204	422	-145	28	31
80	564	-53	22	31
-56	462	-44	1	31
-165	16	4	-27	31
-278	-360	-12	-47	31
-264	-241	55	17	31
-165	-439	116	77	31
-2	-1234	64	65	31
1	-1355	79	59	31
2	-527	209	87	31
107	-122	216	69	31
105	-79	-9	55	31
88	157	-77	1	31
142	27	-21	-114	31
110	134	23	-89	31
22	384	33	14	31
-75	326	-83	29	31
-186	208	-191	2	31
-140	-97	-269	20	31
-60	-67	-182	35	31
44	118	44	27	31
147	133	113	40	31
128	368	127	49	31
137	933	94	41	31
112	1014	54	35	31
44	168	53	56	31
46	-346	42	85	31
-114	-234	64	75	31
-263	-593	55	22	31
-186	-866	150	7	31
-70	-378	332	11	31
36	-165	382	-118	31
-6	80	267	-195	31
-5	210	-103	-65	31
-2	-36	-529	13	31
-77	-60	-719	81	31
-53	-161	-622	102	31
38	80	-186	-110	31
169	505	127	-218	31
123	1112	166	-165	31
148	1456	154	-111	31
192	109	101	-77	31
4	-1309	80	-85	31
-6	-1082	24	-41	31
-39	-611	-5	16	31
-140	-624	-15	31	31
-160	-467	20	24	31
-146	-427	164	53	31
-43	-283	214	80	31
-19	33	106	66	31
4	28	3	81	31
-28	148	-55	92	31
-19	203	-98	76	31
19	244	-75	67	31
21	312	-85	60	31
37	264	-77	7	31
6	395	-39	-14	31
124	503	-17	18	31
173	524	111	17	31
52	462	223	31	31
-79	306	198	4	31
-137	2	197	-66	31
-95	-243	232	-38	31
-61	-123	-9	52	31
32	41	-189	84	31
17	-42	-136	92	31
-65	-177	-249	72	31
-64	-247	-259	-23	31
-52	-416	-90	-12	31
56	-366	24	29	31
86	-180	-111	-91	31
52	-207	-166	-135	31
55	-125	-28	-128	31
49	-23	79	-106	31
106	33	140	-66	31
123	99	97	-65	31
79	130	189	-17	31
-9	192	217	29	31
-95	173	49	89	31
-135	138	-99	94	31
-122	107	-209	84	31
-82	199	-234	79	31
-102	529	-79	-39	31
-38	660	147	-138	31
55	431	188	-2	31
191	277	13	66	31
289	284	-115	-29	31
56	163	79	32	31
-196	-150	368	25	31
-193	-329	281	19	31
-120	-410	-17	49	31
-65	-616	-257	75	31
-131	-498	-452	98	31
-40	-307	-409	29	31
178	-638	-220	12	31
137	-918	54	-7	31
141	-706	347	-115	31
105	-425	348	-165	31
-21	-120	117	-17	31
-104	324	21	17	31
22	655	-9	-23	31
333	829	-85	-83	31
269	760	-57	-108	31
139	552	-38	36	31
33	163	-50	-26	31
-287	-341	-89	-100	31
-434	-690	-76	-74	31
-411	-864	-55	-59	31
-330	-695	-26	22	31
-172	-347	73	72	31
-51	-78	144	76	31
-18	142	138	39	31
1	346	79	9	31
37	404	-2	7	31
79	277	-126	56	31
85	79	-103	89	31
45	107	-45	66	31
5	475	-87	18	31
-43	871	-107	32	31
-36	775	16	47	31
66	70	226	11	31
220	-355	270	8	31
257	-291	62	-31	31
135	-248	-143	-31	31
47	-244	-141	-46	31
8	-256	-72	-55	31
-8	-241	22	-21	31
69	-5	41	8	31
90	373	57	-28	31
56	332	-4	-62	31
12	-54	-87	-31	31
-67	-272	4	-65	31
-52	-123	42	-42	31
-71	213	82	-5	31
-57	231	62	15	31
-18	257	23	29	31
2	168	-13	81	31
95	-71	-93	132	31
9	77	-69	78	31
-31	5	-18	19	31
-37	-161	62	0	31
-123	-18	67	14	31
-69	23	39	1	31
-16	-184	34	13	31
12	-444	-45	26	31
-10	-336	-112	25	31
1	-78	-77	-21	31
57	-70	35	-74	31
60	2	88	-27	31
115	184	21	18	31
231	496	21	25	31
207	806	89	7	31
41	615	30	44	31
-109	345	106	128	31
-345	138	61	105	31
-512	-234	-251	9	31
-348	-528	-264	-87	31
34	-497	-146	-150	31
123	-318	-99	-136	31
24	-465	-79	-84	31
17	-702	-18	-113	31
-107	-760	37	-102	31
47	-585	103	9	31
163	-356	102	54	31
72	-192	28	72	31
71	5	27	28	31
38	154	36	19	31
62	154	82	34	31
9	143	13	34	31
66	485	-61	64	31
230	841	-44	50	31
262	789	-24	92	31
102	394	38	86	31
-142	165	112	-32	31
-282	2	148	-126	31
-336	-330	54	-88	31
-278	-231	-70	39	31
-177	-78	-132	44	31
-34	-78	-130	-6	31
112	-73	-67	-26	31
239	-146	23	-21	31
319	-2	80	-14	31
292	291	40	-37	31
130	555	87	-45	31
-57	487	60	-64	31
-224	216	-86	-29	31
-365	-74	-78	-60	31
-226	-437	-55	-89	31
9	-499	-25	38	31
136	-292	38	123	31
225	-158	49	165	31
88	-307	11	76	31
-41	-342	37	-9	31
-9	-124	44	5	31
-56	-90	-2	-85	31
-13	-10	45	-52	31
-17	84	97	26	31
-23	123	117	2	31
31	364	21	42	31
-19	634	-11	32	31
84	624	-15	-6	31
280	335	-81	-13	31
275	217	-29	-12	31
312	234	1	38	31
302	92	-17	31	31
-155	-108	-14	23	31
-444	-437	-57	31	31
-580	-656	-161	52	31
-585	-581	-102	40	31
-281	-440	-30	-54	31
-70	-383	-107	-142	31
122	-370	-14	-117	31
50	-250	22	-65	31
-6	-99	-42	-71	31
24	-2	28	-43	31
9	16	41	-49	31
68	68	-30	12	31
13	150	-44	30	31
89	513	119	40	31
219	1095	192	98	31
231	979	-58	79	31
116	508	-201	110	31
17	385	-215	123	31
10	-123	-218	57	31
65	-828	-73	-108	31
4	-860	132	-166	31
-93	-733	104	-89	31
84	-511	19	-32	31
17	-122	196	-19	31
-69	-98	237	-9	31
44	15	204	55	31
31	168	153	48	31
25	151	87	72	31
-54	237	171	58	31
9	237	135	-18	31
120	348	-44	-2	31
180	700	-90	43	31
235	1137	-110	21	31
171	978	-208	-1	31
-107	198	-188	53	31
-439	-411	-102	-10	31
-524	-797	-3	-100	31
-397	-963	19	-92	31
-165	-1026	-17	-14	31
-74	-900	-27	92	31
120	-523	7	98	31
235	-219	-11	-17	31
174	-44	-120	-59	31
175	120	-127	19	31
98	302	-84	-4	31
85	421	-20	27	31
22	403	97	55	31
9	368	217	-25	31
22	508	259	-70	31
62	351	188	-56	31
14	-208	75	-32	31
-117	-363	21	-98	31
-119	-137	15	-122	31
-245	-37	18	-60	31
-87	-75	-53	-3	31
85	-288	-184	73	31
-38	-141	-221	119	31
44	201	-209	127	31
44	154	-115	95	31
26	257	-2	36	31
43	308	73	-17	31
-73	262	84	-74	31
-12	138	62	-82	31
57	26	24	-76	31
153	36	-55	-42	31
117	-344	-59	64	31
-23	-509	-32	133	31
37	-339	40	52	31
-92	-103	72	-23	31
-122	24	67	-25	31
10	-27	131	2	31
37	-14	209	30	31
19	-82	196	8	31
-84	128	-29	3	31
-98	469	-186	36	31
116	712	-256	72	31
289	880	-296	21	31
172	618	-158	21	31
72	7	-9	0	31
-68	-458	54	-72	31
-241	-596	39	-82	31
-292	-624	28	-109	31
-125	-361	75	-31	31
70	-193	114	64	31
14	-444	63	4	31
9	-422	-12	-70	31
50	-211	-48	-34	31
57	9	-19	-26	31
-63	322	20	-14	31
-93	340	14	74	31
76	230	9	98	31
214	394	-21	65	31
336	506	18	55	31
274	320	139	56	31
29	485	209	57	31
-214	757	92	68	31
-370	120	-105	56	31
-347	-583	-205	47	31
-189	-858	-274	-58	31
-97	-1127	-302	-171	31
29	-1021	-133	-158	31
128	-677	111	-165	31
64	-310	163	-62	31
57	-161	217	63	31
58	-62	373	14	31
9	180	522	-87	31
68	206	424	-174	31
57	294	-31	-105	31
-9	437	-317	64	31
34	530	-418	66	31
132	575	-442	20	31
303	477	-292	72	31
229	586	-158	94	31
17	635	-92	11	31
-159	214	-30	-17	31
-299	-148	56	34	31
-255	-172	39	55	31
-319	-212	27	77	31
-290	-556	113	50	31
-150	-614	216	-31	31
-65	-166	237	-49	31
101	-57	80	-31	31
113	-47	-89	-80	31
62	88	-244	-106	31
73	36	-206	42	31
150	-10	-2	142	31
117	70	100	40	31
9	472	161	46	31
27	376	162	85	31
-52	-505	81	35	31
-93	-632	11	32	31
85	6	32	-16	31
385	375	24	1	31
403	571	-32	44	31
198	537	-69	-16	31
75	264	-83	-79	31
-132	-66	-78	-37	31
-214	-457	-94	-54	31
-292	-554	-14	-94	31
-252	-631	147	5	31
-125	-649	143	27	31
-124	-520	0	5	31
-7	-286	-100	22	31
-68	40	-188	78	31
-55	84	-146	107	31
-7	170	-10	63	31
-20	210	72	16	31
36	198	133	-54	31
-14	215	170	-64	31
-4	194	116	-48	31
92	273	1	-89	31
285	393	-2	-52	31
294	585	-27	-4	31
49	887	-52	4	31
-115	1346	40	62	31
-342	1229	29	77	31
-560	318	-156	17	31
-451	-592	-268	13	31
-228	-1180	-188	-1	31
-38	-1507	-50	-97	31
137	-1482	64	-102	31
361	-1004	174	-8	31
454	-566	92	29	31
363	-222	-36	-1	31
232	55	44	-52	31
90	134	150	-66	31
74	232	96	63	31
4	236	-43	89	31
-96	417	-36	-12	31
-113	734	9	50	31
-27	619	66	96	31
168	229	57	11	31
377	58	57	1	31
309	189	182	7	31
-64	151	241	-18	31
-297	14	135	-2	31
-320	-39	15	-10	31
-125	-262	-32	-46	31
-72	-336	-221	-83	31
-107	-216	-371	-12	31
1	-267	-315	67	31
-90	-351	-251	-4	31
-89	-236	-191	-116	31
-9	-52	11	-87	31
-24	55	85	54	31
-31	125	68	87	31
-39	124	60	104	31
-9	65	-44	32	31
12	74	-64	-70	31
88	161	-54	-21	31
86	300	3	11	31
-22	422	53	-36	31
-27	328	105	-131	31
186	319	144	-59	31
481	733	109	-3	31
474	1180	74	1	31
300	1117	51	62	31
-44	441	17	79	31
-515	-583	-85	7	31
-748	-1568	-110	-163	31
-721	-1999	-37	-127	31
-265	-1570	100	49	31
8	-951	203	100	31
-36	-707	193	153	31
123	-277	130	191	31
187	82	16	52	31
181	186	-32	17	31
84	346	-108	19	31
67	389	-173	12	31
61	483	-199	19	31
-4	648	-196	-89	31
70	921	-60	-54	31
79	702	-16	6	31
146	81	-5	5	31
257	133	32	28	31
246	305	67	49	31
56	74	92	24	31
-80	-143	32	-68	31
-234	-397	0	-87	31
-399	-651	-49	-9	31
-365	-700	-124	48	31
-146	-562	-120	48	31
50	-182	-12	79	31
19	36	86	12	31
113	155	80	-42	31
200	343	90	12	31
224	452	209	-38	31
141	614	170	-48	31
21	592	65	-59	31
-11	364	78	-69	31
-196	78	-49	-36	31
-252	-173	-68	-94	31
-180	-314	-102	-110	31
-12	-450	-197	-14	31
2	-471	-117	20	31
37	-279	-11	41	31
158	-92	110	27	31
57	-37	97	-1	31
123	-3	34	106	31
86	-24	-4	122	31
14	-17	30	92	31
49	19	65	10	31
67	-81	6	-57	31
121	79	-24	-28	31
80	599	-82	-12	31
-93	862	-67	-77	31
-268	491	18	-147	31
-212	-155	52	-120	31
-234	-375	-8	-89	31
-237	-480	-65	74	31
-78	-608	-22	105	31
42	-227	37	83	31
145	94	39	126	31
107	-41	55	67	31
113	-198	42	91	31
200	80	-41	59	31
134	312	-104	-52	31
-34	225	-120	-113	31
-64	14	-137	-90	31
51	-88	-85	-86	31
122	390	63	-60	31
277	618	7	1	31
445	584	-43	-19	31
405	545	95	11	31
80	120	164	89	31
-293	-322	123	127	31
-509	-778	-5	102	31
-531	-1011	-67	70	31
-216	-884	39	16	31
-21	-555	103	-39	31
-15	-182	-12	-28	31
4	-44	-86	-89	31
-1	138	-112	-108	31
127	355	-118	-92	31
239	525	-74	-27	31
139	472	-86	-4	31
13	142	-78	-44	31
87	44	-55	55	31
44	-1	-2	57	31
-5	-92	71	37	31
-50	-40	105	112	31
-90	-142	69	118	31
-2	-120	14	109	31
-75	64	0	44	31
-134	275	-19	-70	31
-92	705	73	-65	31
72	591	183	-67	31
108	-67	182	-44	31
-11	-370	103	21	31
29	-273	-41	49	31
-69	-270	-190	57	31
-244	-384	-261	16	31
-196	-327	-132	-7	31
-69	-250	30	-42	31
-11	-121	89	-34	31
17	-161	104	3	31
10	-172	79	-8	31
24	90	74	-36	31
123	389	93	-47	31
163	829	50	-22	31
53	642	-38	-12	31
-57	169	-85	1	31
-10	65	-133	4	31
7	-278	-135	-7	31
21	-656	-50	11	31
183	-633	28	-16	31
191	-333	37	-19	31
-18	-58	15	27	31
-12	295	-27	4	31
35	500	-79	-19	31
-152	196	-22	-22	31
-181	-224	30	-32	31
-175	47	49	-10	31
-208	520	55	-12	31
-178	-71	12	-16	31
-73	-543	2	-19	31
34	-13	-9	12	31
40	158	12	81	31
188	118	4	68	31
175	434	9	-34	31
110	120	76	-14	31
97	-56	110	121	31
-9	19	82	-30	31
-78	-464	-15	-123	31
-218	-404	-52	-38	31
-54	-88	-79	-28	31
183	-27	-88	26	31
74	-178	-65	11	31
-12	-360	-94	71	31
-17	-232	-104	64	31
-30	-279	-17	-22	31
82	-262	65	11	31
130	-42	105	17	31
44	65	155	-1	31
65	160	134	-107	31
15	278	19	-84	31
14	531	-128	9	31
203	978	-200	-22	31
327	1229	-130	27	31
188	873	-6	103	31
-84	268	39	100	31
-328	-52	14	37	31
-577	-397	-48	18	31
-395	-851	-39	17	31
-108	-857	62	6	31
-112	-797	67	-77	31
-26	-927	162	-142	31
30	-755	286	-98	31
85	-343	167	-39	31
94	-22	32	28	31
49	82	-82	57	31
120	163	-146	102	31
127	175	1	109	31
94	373	192	142	31
-35	719	182	143	31
-53	545	118	67	31
83	271	-90	-19	31
130	259	-308	-128	31
122	251	-298	-176	31
-9	328	-373	-143	31
-27	356	-151	-60	31
41	257	176	-47	31
32	78	198	-20	31
32	13	29	46	31
-32	0	-204	109	31
-87	-253	-317	-4	31
-185	-367	-230	-133	31
-103	-423	122	-54	31
24	-474	171	-39	31
6	-378	65	14	31
64	-301	97	7	31
1	-145	67	-10	31
-53	14	91	19	31
-66	-12	102	66	31
-43	-92	116	162	31
-11	-10	59	77	31
-21	76	-23	10	31
50	131	-92	-69	31
162	285	-47	-6	31
110	495	55	150	31
-33	606	42	52	31
-129	141	44	-86	31
-229	-329	-33	-106	31
-122	-21	-93	-12	31
-118	476	-89	-36	31
-58	513	-54	-47	31
69	-130	20	-9	31
-59	-973	26	-60	31
-135	-1114	47	7	31
-110	-552	103	62	31
135	-299	124	60	31
151	-277	57	-7	31
37	155	-14	-93	31
40	514	-71	-62	31
-110	538	-92	-48	31
-48	-7	-29	-4	31
79	-322	-8	80	31
226	69	-29	103	31
363	141	-36	100	31
161	136	-32	12	31
55	160	-16	-94	31
97	64	-11	-79	31
32	216	11	-85	31
37	342	41	-60	31
54	174	37	73	31
12	-155	57	197	31
-50	-137	110	120	31
-82	2	88	-1	31
16	142	-24	74	31
264	634	-105	37	31
389	842	-157	34	31
166	949	-159	39	31
-105	1097	-84	-2	31
-375	476	-60	-46	31
-708	-535	-28	-165	31
-535	-1049	37	-77	31
-175	-1358	84	16	31
-190	-1727	63	-61	31
-168	-1453	37	-98	31
24	-865	90	-42	31
119	-358	115	-33	31
41	107	124	-56	31
148	459	115	7	31
181	852	81	97	31
-123	461	14	84	31
-50	-224	-38	13	31
175	-104	-49	-1	31
242	285	-62	-92	31
223	404	-32	-75	31
-59	379	42	17	31
-158	238	40	14	31
98	24	-57	42	31
206	24	-33	6	31
-64	-21	-33	12	31
-295	44	-151	27	31
-220	32	-128	22	31
-62	-28	-92	21	31
126	112	-111	-10	31
228	136	-64	31	31
14	206	-25	16	31
-151	95	2	-17	31
56	74	22	37	31
347	370	76	69	31
466	343	94	42	31
335	336	72	16	31
80	579	61	4	31
-165	488	-4	-27	31
-403	12	-27	-35	31
-443	-814	13	21	31
-482	-1227	59	84	31
-312	-688	61	70	31
-31	-339	37	9	31
56	-331	-9	-127	31
315	-136	-29	-217	31
110	-95	-25	-125	31
-47	-19	-45	-56	31
362	132	-32	-37	31
406	277	-13	-18	31
340	682	27	-2	31
293	786	36	34	31
9	495	-37	34	31
-289	540	-67	59	31
-524	633	-43	109	31
-527	-312	25	58	31
-118	-1314	108	-65	31
9	-925	140	-19	31
79	-204	114	80	31
503	-407	13	77	31
226	-928	-86	47	31
-206	-420	-143	-46	31
-105	150	-101	-21	31
72	-49	14	17	31
130	96	34	-18	31
-93	345	24	-15	31
-191	416	-12	-9	31
-42	515	-47	22	31
-18	710	12	-16	31
-49	769	64	-60	31
-74	431	85	-44	31
-227	-242	58	-44	31
-220	-710	-24	26	31
-2	-570	-70	36	31
104	-283	-24	-2	31
360	153	42	110	31
421	105	105	141	31
173	12	83	77	31
42	252	-16	13	31
-25	-92	-50	-28	31
123	-277	-118	12	31
113	318	-142	21	31
-94	1459	-110	-11	31
-89	2021	-74	-65	31
-52	769	18	-75	31
-132	-1038	-27	-61	31
-192	-1190	-118	-115	31
-310	-988	-41	-82	31
-472	-1390	39	33	31
-457	-1372	65	-26	31
-246	-1354	129	-70	31
87	-867	108	-34	31
19	-280	38	29	31
-92	-321	47	101	31
47	-121	36	8	31
123	214	24	-46	31
216	475	20	-63	31
322	623	-39	-34	31
322	980	-79	64	31
176	1253	-90	113	31
61	848	-57	62	31
-121	339	5	3	31
52	150	50	42	31
212	-93	104	26	31
23	-261	31	21	31
-33	-207	-113	-2	31
-24	-446	-109	24	31
-79	-434	-102	92	31
-180	-133	-1	73	31
-12	-54	199	42	31
42	84	193	-37	31
108	616	191	-132	31
170	1540	143	-210	31
59	1300	-25	-133	31
-32	-331	-110	-63	31
-44	-722	-45	-49	31
109	-66	305	58	31
115	-143	361	99	31
243	-75	-94	123	31
150	33	-380	32	31
-99	-176	-517	-91	31
-202	-57	-412	-127	31
-382	-231	-91	-188	31
-393	-17	69	-69	31
-340	1022	87	91	31
-443	1332	-26	62	31
-344	17	-11	91	31
14	-1050	64	86	31
314	-647	110	38	31
674	-292	115	108	31
583	288	25	95	31
546	511	-51	52	31
784	364	-140	-10	31
406	1293	-45	39	31
171	1327	60	124	31
-68	-227	-11	5	31
-709	-1581	-50	-122	31
-922	-2083	4	-138	31
-637	-1780	134	-22	31
-365	-1337	146	17	31
-332	-987	141	27	31
-84	-424	159	100	31
-24	-61	77	92	31
-117	1	75	26	31
79	50	92	-139	31
166	497	25	-223	31
212	1011	-96	-112	31
91	772	-234	11	31
-42	523	-274	44	31
108	426	-155	34	31
-46	36	-11	0	31
-393	-1	68	-33	31
-176	73	77	-29	31
67	59	12	-90	31
162	14	-9	-76	31
246	-143	-29	17	31
286	-27	-47	167	31
113	128	38	163	31
-150	207	69	-28	31
69	194	-5	4	31
343	179	-46	14	31
572	376	-55	-31	31
271	484	-75	-4	31
-113	303	-41	22	31
-3	-190	119	36	31
-82	-194	224	1	31
-172	449	148	-42	31
-193	572	-12	-65	31
-161	34	-140	31	31
-130	-125	7	60	31
-3	23	105	80	31
149	-593	-14	172	31
113	-534	-36	145	31
92	128	-29	17	31
17	-339	-11	-90	31
-83	-269	8	-77	31
-111	16	37	-88	31
-27	-41	55	-19	31
188	390	74	9	31
230	378	-34	-32	31
44	291	-158	-26	31
-136	227	-128	-137	31
-391	153	-92	-92	31
-646	83	-32	-60	31
-614	-194	-28	-77	31
-258	59	-15	7	31
-55	-322	-30	13	31
98	-1028	-16	14	31
260	-545	115	1	31
267	-400	234	26	31
460	-345	266	94	31
378	45	27	105	31
242	16	-194	99	31
-6	287	-262	11	31
-168	196	-297	-91	31
188	-229	-166	-148	31
283	-92	61	-66	31
300	108	177	94	31
32	257	104	62	31
-455	225	17	9	31
-595	-80	-17	31	31
-464	-168	35	21	31
-187	-120	119	-36	31
-150	-184	70	-61	31
-372	88	42	-44	31
-365	1193	62	-22	31
6	795	-4	-11	31
279	-1454	-55	-7	31
496	-1385	-64	-7	31
622	-366	-36	57	31
401	-232	37	145	31
385	456	49	69	31
334	427	44	-20	31
49	365	69	-20	31
-54	323	-1	-16	31
-215	-72	-93	-14	31
-260	-21	-54	-46	31
-194	-209	-98	-49	31
-174	-179	-204	29	31
-113	-21	-72	-52	31
-2	163	46	-46	31
-7	353	39	156	31
-166	279	212	178	31
-92	345	471	136	31
-69	523	424	-42	31
-1	487	2	-98	31
332	244	-353	24	31
475	623	-548	27	31
434	949	-581	62	31
290	639	-171	55	31
-156	177	360	-52	31
-501	-654	327	-253	31
-604	-1064	-71	-276	31
-392	-953	-182	-30	31
75	-628	-232	36	31
2	-302	-189	-32	31
-36	-603	168	23	31
-59	-985	347	49	31
-75	-924	300	20	31
99	-617	174	34	31
-6	-167	67	42	31
7	302	6	-36	31
-26	441	-163	-77	31
34	603	-141	-36	31
135	647	44	17	31
33	654	89	21	31
-85	1170	9	37	31
-194	1339	9	123	31
-219	147	-16	62	31
-24	-1062	-131	7	31
191	-829	-148	-34	31
107	-745	-163	-92	31
318	-727	-124	-49	31
244	-247	139	17	31
-52	-158	519	50	31
117	135	386	-11	31
14	342	26	47	31
36	505	-112	94	31
21	577	-268	-20	31
-3	270	-196	-26	31
221	490	-7	9	31
19	630	86	-32	31
-154	297	-11	-56	31
-179	-4	-110	-85	31
-279	-552	-181	-110	31
-304	-958	-191	-31	31
-103	-890	-28	68	31
203	-493	134	81	31
287	-146	428	15	31
142	200	494	78	31
-31	1099	101	94	31
-30	1221	-309	72	31
70	199	-454	76	31
314	26	-604	24	31
461	828	-502	167	31
391	821	-82	198	31
-102	326	195	-87	31
-764	21	309	-391	31
-796	-444	182	-245	31
-465	-752	84	17	31
-113	-1163	75	140	31
-115	-1301	80	180	31
-34	-848	48	82	31
166	-437	1	142	31
152	-352	32	44	31
125	7	-19	-6	31
64	265	137	64	31
31	-253	292	54	31
69	-232	115	-11	31
311	498	-119	-233	31
330	882	-321	-203	31
148	907	-240	-238	31
-130	625	-131	-381	31
-489	-110	-60	-236	31
-757	-740	30	-102	31
-550	-1000	103	-89	31
55	-823	329	-73	31
476	-446	331	95	31
627	-229	176	122	31
557	64	35	79	31
376	355	41	230	31
-153	632	90	135	31
-176	440	216	24	31
68	193	288	-4	31
-12	551	-44	26	31
87	405	-217	72	31
33	115	-289	5	31
37	694	-319	47	31
-11	906	-209	37	31
49	75	-193	41	31
148	-302	-232	74	31
38	-26	-219	10	31
41	120	-68	-45	31
-65	318	-9	68	31
34	471	31	165	31
140	343	47	78	31
32	27	36	94	31
-175	-242	21	57	31
-433	-646	-31	9	31
-449	-1196	-62	-2	31
-325	-1291	-81	-70	31
-57	-817	75	-39	31
70	-365	221	-25	31
51	-78	285	-16	31
-42	130	155	-1	31
-135	74	-36	19	31
-36	25	-70	13	31
67	16	-112	15	31
115	79	36	39	31
46	184	171	-94	31
37	171	112	-166	31
-12	264	41	-127	31
1	297	-57	-170	31
8	518	-113	-100	31
-50	1035	5	41	31
107	911	80	9	31
10	45	65	-20	31
-126	-505	52	-2	31
-82	-383	-58	-12	31
14	-9	-90	47	31
276	458	-81	65	31
103	654	-98	-28	31
-23	52	-65	-57	31
2	-637	-14	49	31
-86	-609	24	27	31
118	-355	22	2	31
113	-258	26	59	31
151	-168	50	22	31
-132	-157	36	87	31
-550	-88	-55	84	31
-252	285	-29	6	31
215	-13	7	30	31
481	-864	-17	62	31
574	-846	36	122	31
362	-426	-1	36	31
9	-198	-47	-82	31
-112	191	-20	-11	31
-378	684	14	52	31
-461	689	14	33	31
-239	77	10	-26	31
-123	-260	126	-49	31
16	-141	166	-32	31
131	-312	-62	-89	31
314	-275	-176	-125	31
507	194	-81	-192	31
413	343	-59	-243	31
-87	315	52	-111	31
-199	207	124	32	31
79	257	82	83	31
-123	392	62	-6	31
-234	362	-7	-57	31
-237	636	-72	64	31
-266	931	-98	95	31
-376	790	-75	26	31
-434	147	-131	27	31
-107	-558	-156	112	31
-107	-921	-50	101	31
-118	-1311	0	22	31
191	-1423	92	88	31
404	-838	144	162	31
368	-165	145	109	31
118	90	100	-78	31
-39	145	-8	-102	31
-19	235	74	1	31
-79	234	113	-118	31
-154	331	6	-89	31
-87	442	-20	35	31
-29	332	-27	31	31
6	184	-24	60	31
182	74	-113	79	31
399	121	-141	46	31
171	141	-169	-75	31
9	117	-309	-38	31
-51	165	-125	-4	31
-354	158	84	25	31
-327	115	152	70	31
-74	168	179	-23	31
320	304	215	47	31
527	57	186	87	31
208	-475	-27	31	31
2	-542	-89	-50	31
76	-136	-40	-110	31
39	45	54	-145	31
-98	43	191	-55	31
-155	94	224	80	31
-218	-89	33	-29	31
-342	-208	-175	-127	31
-210	-231	-233	-71	31
29	-148	-245	34	31
65	207	-105	45	31
22	543	-6	19	31
-173	717	4	12	31
-13	755	60	19	31
179	723	30	9	31
-465	391	-7	-6	31
-795	65	22	31	31
-487	378	42	56	31
-219	-56	-6	67	31
439	-1621	-49	72	31
1048	-1510	-16	129	31
572	-459	21	-22	31
321	-343	74	-200	31
199	-187	61	-108	31
-6	-658	14	-103	31
322	-1218	-7	-86	31
-75	-599	-31	-57	31
55	-205	30	-19	31
150	-226	35	60	31
-314	203	26	31	31
22	666	41	19	31
-19	1119	11	53	31
35	796	-11	135	31
91	151	-47	79	31
-2	310	-93	24	31
650	48	-115	62	31
376	-75	-93	-3	31
-157	594	-45	-55	31
-61	707	-5	-115	31
-371	258	11	-132	31
-473	-48	3	-105	31
-724	-196	12	-37	31
-691	-101	43	4	31
-331	-401	49	19	31
-69	-947	141	84	31
312	-563	186	50	31
309	-227	145	65	31
203	-227	155	90	31
69	110	12	71	31
73	153	-191	14	31
65	153	-297	-72	31
-48	227	-279	12	31
-67	434	-179	102	31
-11	1106	-130	21	31
266	1223	-22	-30	31
342	596	113	49	31
114	133	226	7	31
-93	-123	199	9	31
-328	-582	82	-75	31
-464	-1049	138	-146	31
-197	-919	139	46	31
63	-534	-4	120	31
72	-420	-112	109	31
92	-162	-224	-2	31
-41	47	-151	-114	31
-86	30	60	-139	31
-114	118	160	-77	31
-272	271	176	-86	31
-98	400	57	-70	31
129	303	-39	98	31
52	245	-60	33	31
-224	384	-37	80	31
-295	757	-2	102	31
-134	1188	9	-32	31
90	-161	-20	-72	31
379	-1633	-94	-29	31
630	-583	-80	84	31
741	-125	-72	44	31
737	-71	-49	36	31
524	550	-6	-7	31
49	54	-37	-113	31
-145	-65	31	-60	31
-343	-184	100	-21	31
-433	-438	34	-84	31
-209	-406	39	-34	31
-145	-444	55	82	31
-529	-191	-45	44	31
-1387	76	-87	16	31
-1596	369	-62	-50	31
-888	-138	-89	-88	31
527	-147	-21	6	31
2170	585	127	49	31
1503	340	78	57	31
213	525	-72	70	31
549	702	-79	108	31
50	427	-42	43	31
-80	477	-3	-29	31
77	-124	-1	11	31
-167	-733	-5	46	31
-47	-664	36	58	31
-449	-579	71	0	31
-206	-796	128	-2	31
4	-227	125	36	31
-65	320	31	-41	31
65	-422	-31	-43	31
-3	-439	-39	-15	31
-37	28	-37	-37	31
-57	133	-22	-40	31
22	232	-51	-94	31
-17	260	-33	-92	31
-55	378	65	19	31
-59	429	173	114	31
31	508	204	67	31
107	401	47	-70	31
-84	287	-106	-62	31
-261	184	-199	37	31
-287	-39	-277	-2	31
-132	-187	-236	-67	31
-97	-512	-77	-132	31
-105	-733	141	-171	31
103	-586	211	-54	31
94	-272	80	108	31
127	-95	21	200	31
181	21	7	151	31
89	118	62	82	31
124	135	120	34	31
27	263	47	-42	31
-17	362	-75	-156	31
13	569	-175	-107	31
17	761	-161	26	31
2	733	-78	31	31
-175	454	120	3	31
-237	42	248	22	31
-167	-285	225	166	31
-145	-875	110	183	31
53	-1102	4	171	31
236	-616	49	130	31
226	-382	132	-30	31
287	-274	255	-135	31
151	-108	105	-177	31
-97	-23	-313	-151	31
-151	224	-621	-199	31
-31	418	-547	-146	31
41	567	-337	-136	31
-123	1095	-244	-113	31
210	1441	-36	9	31
194	154	7	-15	31
-610	-1312	25	16	31
-519	-1150	98	32	31
-198	-881	109	69	31
-119	-392	145	73	31
298	239	118	47	31
405	33	82	75	31
181	-22	11	41	31
90	6	24	-6	31
130	375	122	-6	31
171	842	253	47	31
36	61	315	39	31
-393	-507	216	65	31
-328	-6	105	47	31
343	328	-23	6	31
644	540	-140	14	31
158	120	-295	-26	31
-310	-434	-305	7	31
131	167	-118	32	31
160	84	-45	46	31
-14	-363	50	46	31
128	-72	95	34	31
42	170	15	41	31
133	285	41	42	31
117	110	42	51	31
-37	69	17	-8	31
-301	14	179	-22	31
-509	6	263	9	31
-410	-255	45	4	31
-151	-388	-103	-11	31
-136	-120	-317	12	31
-135	-704	-442	7	31
75	-403	-134	-109	31
154	256	188	-81	31
199	-165	234	18	31
-128	-7	64	-101	31
-301	362	11	-98	31
69	80	35	55	31
226	-427	50	-24	31
216	-249	31	-60	31
269	259	9	28	31
113	222	48	15	31
5	134	30	-46	31
-19	148	32	-52	31
-75	76	21	-27	31
41	-4	-7	-21	31
-22	139	-28	4	31
-72	381	-46	22	31
-99	121	-36	32	31
-91	-79	36	32	31
-2	237	93	35	31
-34	278	74	2	31
-60	72	42	10	31
-252	-215	-64	30	31
-304	-274	-97	5	31
-70	-125	-54	49	31
240	-51	-78	33	31
375	388	-49	36	31
211	437	-14	68	31
49	316	1	50	31
26	181	48	74	31
-27	-352	-8	39	31
-95	-561	-105	-62	31
-139	-732	-74	-110	31
-294	-275	-74	-64	31
-180	942	-67	7	31
-107	765	26	-57	31
-46	-831	95	-146	31
62	-1186	98	-117	31
-185	-551	37	-51	31
-284	-509	34	53	31
-338	-284	32	54	31
-168	120	7	29	31
194	90	30	48	31
293	159	44	-29	31
384	821	6	-49	31
312	1341	-1	19	31
476	576	10	42	31
717	-244	12	52	31
524	394	94	108	31
364	856	209	99	31
204	107	136	26	31
-34	-419	-190	-78	31
-160	-666	-366	-124	31
-109	-957	-368	-53	31
-573	-529	-259	-66	31
-749	-259	2	-72	31
-531	-106	163	110	31
-451	15	117	122	31
50	-368	59	1	31
102	-161	150	17	31
163	-87	122	46	31
134	70	37	82	31
-115	444	-22	-6	31
-39	478	-67	-54	31
141	1138	22	23	31
433	801	16	34	31
188	-47	49	-10	31
-9	152	187	-93	31
-32	-334	96	-131	31
-419	-797	-101	-91	31
-409	-711	-214	16	31
-82	-599	-205	47	31
34	-287	-73	-36	31
180	-396	106	-37	31
148	-47	198	39	31
2	482	74	20	31
-54	469	-5	30	31
-203	679	-34	50	31
-161	866	-122	59	31
50	234	-132	30	31
393	-306	-73	-5	31
333	191	45	28	31
116	492	88	29	31
236	425	77	87	31
-63	-215	12	6	31
-324	-900	-16	-100	31
-234	-761	132	-77	31
-89	-874	131	-52	31
-74	-847	-39	-34	31
-46	-599	-76	-31	31
65	-165	-130	10	31
75	552	-173	29	31
129	488	-75	44	31
24	-29	-46	5	31
-148	-192	-27	46	31
-428	-77	-2	123	31
-515	7	70	93	31
-221	143	119	3	31
206	286	102	-106	31
703	397	116	-45	31
548	490	84	16	31
160	479	81	-5	31
196	370	6	-15	31
84	-54	-40	-16	31
-46	-51	-21	-12	31
-58	264	-47	11	31
-107	259	-33	58	31
-16	309	-25	60	31
-57	130	-11	20	31
-138	-13	-11	-60	31
-114	113	13	-76	31
16	131	4	-55	31
135	138	-10	-38	31
-27	131	-31	-17	31
-197	387	-93	-42	31
-524	327	-74	-72	31
-546	-157	-54	-46	31
-19	-196	-31	1	31
388	-724	-48	-13	31
225	-1509	-38	-20	31
-70	-1321	9	2	31
88	-424	34	26	31
-11	379	77	44	31
245	178	41	76	31
272	-110	-19	104	31
-64	138	-32	124	31
207	314	40	77	31
176	416	83	-55	31
199	113	67	-119	31
-59	-350	64	-127	31
-245	-441	107	-71	31
-50	-307	97	1	31
-170	-295	30	22	31
-14	-70	162	42	31
37	504	112	42	31
14	939	-80	60	31
-50	692	-183	49	31
-267	-197	-291	4	31
-211	-601	-240	-1	31
-26	-401	-107	-16	31
344	120	117	-43	31
239	395	102	-42	31
-281	77	-79	-27	31
-198	97	-99	-12	31
-18	544	-100	53	31
-27	922	27	59	31
218	650	132	22	31
337	39	155	52	31
260	-166	99	7	31
-14	-356	16	-46	31
-201	-364	-31	-65	31
-312	-208	-100	-49	31
-320	-917	-99	16	31
65	-826	-41	26	31
-69	-231	36	40	31
-148	-326	97	29	31
29	254	94	-38	31
195	371	-2	-38	31
275	384	-54	-18	31
-79	530	-85	4	31
-296	283	-126	78	31
-412	44	-88	55	31
-163	-143	46	-54	31
191	307	163	-17	31
332	374	123	25	31
181	-443	51	-6	31
-64	-1031	-32	2	31
363	-465	-60	-7	31
517	-223	-24	26	31
-118	-354	-21	65	31
-243	237	6	72	31
-5	391	11	54	31
-74	494	-16	-46	31
168	418	-34	-122	31
202	571	-9	-65	31
-58	418	77	-90	31
-450	-404	146	-88	31
-671	129	105	32	31
1	147	32	61	31
410	-581	39	44	31
340	-387	-19	-68	31
150	-449	-111	-110	31
-1	-554	-96	-73	31
141	-194	-55	-54	31
3	-14	-61	-4	31
42	17	-59	104	31
52	224	-34	113	31
-60	397	-22	0	31
137	551	74	66	31
208	584	143	63	31
2	479	90	4	31
-545	478	9	27	31
-681	425	-60	36	31
-302	227	-175	80	31
-62	-180	-251	66	31
204	-467	-175	-71	31
312	-628	-92	-67	31
-155	-744	-35	-49	31
-217	-695	88	-109	31
83	-604	155	0	31
-38	-172	97	10	31
-9	257	84	15	31
12	-1	85	-12	31
28	-441	54	-113	31
151	-301	29	-64	31
267	51	38	-5	31
156	248	80	24	31
-59	623	27	68	31
69	537	-38	89	31
161	213	-12	49	31
117	274	20	1	31
-27	45	75	-54	31
-2	35	50	-73	31
-14	209	-54	-39	31
-26	476	-75	-36	31
-17	598	-120	-19	31
-296	-502	-161	59	31
-245	-1063	-111	84	31
-115	-114	-6	94	31
66	490	65	110	31
264	75	191	77	31
168	-404	291	49	31
86	188	107	25	31
-82	712	-74	12	31
-146	-255	-239	-52	31
-180	-747	-244	-77	31
-307	-176	-7	-54	31
-266	15	86	-160	31
-137	-41	132	-181	31
130	-200	49	-80	31
130	-340	-21	-17	31
56	-87	-26	126	31
274	133	-78	114	31
-113	129	-69	-39	31
-260	113	-40	-25	31
168	224	49	-15	31
16	630	49	-16	31
177	446	36	-7	31
189	-91	77	45	31
48	550	107	136	31
546	494	90	75	31
266	-432	-57	4	31
-210	-237	-181	22	31
-190	-563	-179	37	31
-103	-699	-108	7	31
174	-191	-2	-34	31
276	-59	59	-54	31
-22	343	25	4	31
-171	388	39	52	31
29	578	54	28	31
46	549	33	13	31
-1	-300	26	-14	31
-116	-956	19	-21	31
-242	-943	26	-55	31
-282	-312	2	-99	31
-221	217	50	-95	31
-62	258	72	-51	31
-31	13	9	57	31
-185	-106	-2	100	31
-243	-134	-4	73	31
129	-113	-43	53	31
256	-369	-75	2	31
199	-297	41	-5	31
-44	409	139	14	31
-65	485	63	7	31
183	833	-30	1	31
7	826	-86	-6	31
221	-61	-152	-31	31
-30	-538	-195	-92	31
-137	-470	-156	-43	31
77	-181	-104	33	31
-36	-272	-44	42	31
110	-69	19	14	31
-122	110	27	-59	31
-203	34	-1	16	31
-173	143	87	86	31
213	102	181	55	31
358	146	96	-120	31
72	281	33	-211	31
133	421	-17	-42	31
-77	489	-29	-37	31
-103	634	-20	-6	31
11	592	-78	127	31
88	408	-38	167	31
92	395	0	141	31
-79	-6	26	79	31
-464	-715	82	-9	31
-786	-1361	70	-101	31
-605	-1266	-4	-121	31
-176	-780	6	-90	31
201	-707	64	-51	31
610	-509	45	-31	31
749	-184	39	22	31
319	7	42	56	31
98	186	22	33	31
-49	269	-17	-11	31
-142	260	-41	-41	31
-127	322	-21	-37	31
-37	298	5	-32	31
77	204	7	19	31
109	133	9	122	31
144	105	-2	166	31
-89	214	-44	60	31
-70	305	-53	33	31
22	341	-79	78	31
27	286	-91	36	31
-1	201	6	-23	31
-118	160	101	-58	31
-56	-50	71	14	31
-92	-257	4	-14	31
-39	-223	-75	-48	31
69	-165	-143	14	31
-105	-48	-137	-85	31
-120	139	-25	-221	31
81	169	98	-115	31
-3	207	99	37	31
-74	165	104	-19	31
118	275	118	32	31
136	424	98	57	31
-27	-78	41	6	31
-277	-140	-47	46	31
-251	399	-49	21	31
-26	87	24	-2	31
113	-280	36	-64	31
236	-54	14	-9	31
84	-251	-15	41	31
-97	-705	-104	7	31
-3	-737	-149	38	31
55	-625	-125	26	31
16	-492	-100	14	31
-113	-152	-94	-66	31
-47	42	-44	-59	31
374	419	61	-10	31
360	856	87	-8	31
64	723	83	76	31
-325	363	60	48	31
-661	-36	34	-39	31
-451	-330	80	-28	31
-234	-490	95	27	31
472	-105	62	92	31
631	338	64	108	31
-400	99	42	-20	31
-667	-393	-77	-107	31
-145	-680	-123	59	31
570	-289	-76	155	31
832	-36	-75	69	31
451	16	-105	69	31
159	206	-78	-26	31
49	179	0	-115	31
46	200	-21	-1	31
186	290	-3	26	31
120	454	84	-90	31
-257	558	47	-130	31
-382	416	-27	-117	31
-130	-27	-21	-96	31
-27	-222	30	-55	31
-31	-255	40	-19	31
36	-728	27	-4	31
-76	-558	16	-1	31
-125	-119	-14	22	31
-79	-212	-22	-14	31
-125	-135	-42	-47	31
-140	-247	-42	-18	31
-50	-141	82	67	31
17	214	118	89	31
45	258	14	41	31
57	354	1	71	31
-58	335	0	80	31
-110	303	-26	7	31
-87	236	-15	-12	31
-120	94	13	37	31
-38	-119	54	62	31
14	-432	20	43	31
65	-322	13	-22	31
199	-136	12	-19	31
170	120	-24	-36	31
151	492	5	-73	31
-60	436	-4	-15	31
-300	29	-37	65	31
-44	-520	24	51	31
38	-279	146	-1	31
86	27	84	29	31
97	-254	-84	47	31
-65	-59	-171	-5	31
13	81	-202	-138	31
-50	128	-75	-97	31
-94	220	43	55	31
-129	259	41	36	31
-63	397	18	-21	31
108	335	14	4	31
158	309	-6	34	31
153	312	-75	12	31
69	323	-60	27	31
-54	104	21	21	31
-534	-629	38	-37	31
-478	-1102	35	-68	31
-180	-646	88	-100	31
-74	51	47	-120	31
328	161	-15	-2	31
213	-180	29	68	31
319	-487	9	32	31
392	-350	6	110	31
-42	-103	52	73	31
-75	214	64	-5	31
98	560	48	-12	31
150	577	40	24	31
57	387	-15	32	31
-52	-6	-100	-57	31
-351	118	-67	-37	31
-239	496	-27	-25	31
12	-113	-17	31	31
84	-826	14	143	31
529	-642	0	168	31
393	-277	-50	-16	31
238	-75	-42	-161	31
93	71	-12	-151	31
-186	111	-61	-195	31
45	305	-31	-82	31
21	264	24	1	31
-27	285	-14	4	31
21	672	-18	49	31
133	456	-9	92	31
62	291	4	159	31
-324	381	-1	56	31
-348	366	-43	-108	31
-226	381	-27	-156	31
-219	-191	62	-117	31
-47	-877	123	-110	31
-100	-1154	84	-57	31
-312	-1119	-7	110	31
-255	-928	-85	112	31
-57	-601	0	75	31
184	-170	120	66	31
109	14	28	7	31
194	194	-36	115	31
166	270	-54	128	31
-16	252	-90	28	31
11	322	-41	-24	31
-124	302	45	-52	31
-103	426	103	21	31
-14	563	79	16	31
216	369	57	40	31
155	307	37	107	31
30	578	33	59	31
173	313	14	96	31
-97	203	54	87	31
-123	203	106	-14	31
58	-478	-96	-104	31
-44	-522	-366	-138	31
68	-461	-302	-65	31
113	-643	-44	-163	31
-57	-462	38	-162	31
-65	-303	87	37	31
-141	-148	125	16	31
-168	2	87	-36	31
-125	110	-16	-101	31
-145	-7	-60	-85	31
-78	315	36	49	31
5	892	4	58	31
-44	379	-7	66	31
-212	-129	12	41	31
-125	363	-13	28	31
71	197	36	9	31
267	-360	35	-71	31
296	-45	41	-31	31
63	168	36	9	31
-483	643	-28	-6	31
-481	465	-89	-32	31
145	-1054	-97	-90	31
691	-637	-2	-17	31
1072	125	80	113	31
259	-913	90	74	31
-239	-558	50	-4	31
-53	134	16	-4	31
-50	294	12	-24	31
-62	664	-21	5	31
-160	231	-26	99	31
-16	346	15	62	31
74	-289	-31	6	31
162	-791	-47	17	31
80	308	-24	-23	31
59	289	-64	6	31
1	422	-60	53	31
-14	613	-50	13	31
-14	471	-16	82	31
-310	533	14	158	31
-444	-214	-4	47	31
-165	-372	11	-50	31
273	-572	54	-128	31
248	-1033	83	-185	31
-20	-874	82	-85	31
-158	-699	89	-37	31
43	-363	64	-47	31
12	-155	7	-8	31
-264	-5	-80	11	31
-151	209	-96	22	31
-74	527	-29	68	31
-95	915	60	80	31
-132	422	84	32	31
-222	-495	11	-22	31
-33	-363	12	-101	31
183	124	-47	-107	31
112	180	-49	-20	31
-92	438	17	51	31
-337	307	48	55	31
127	-19	130	46	31
486	-147	56	47	31
300	-185	-2	-7	31
105	250	-35	-16	31
-7	489	-79	71	31
222	470	-77	141	31
61	322	-89	147	31
-25	60	-19	107	31
-38	-229	29	9	31
-29	-361	82	-94	31
98	-274	70	-208	31
-79	-284	-59	-181	31
-168	-189	-221	-32	31
-267	-158	-236	-21	31
-217	-117	-137	-4	31
-97	-52	-66	-37	31
19	-9	14	-49	31
85	42	66	-41	31
8	-5	134	-70	31
-46	264	80	4	31
-52	505	7	55	31
68	165	4	104	31
-41	220	-1	60	31
-279	614	10	4	31
-172	-96	22	2	31
23	-680	34	-41	31
-76	-387	-26	-16	31
-433	-136	-71	-32	31
-587	426	-26	-53	31
165	723	80	74	31
1047	322	92	167	31
999	96	42	57	31
281	714	4	-64	31
-273	662	-27	-36	31
-373	-910	-17	-17	31
-278	-1028	-35	-19	31
1	-406	6	-4	31
295	-944	27	-31	31
273	-687	31	-75	31
322	-423	118	-52	31
491	-518	129	-7	31
114	-5	51	-48	31
-210	363	17	-65	31
-233	145	-41	72	31
-226	39	-115	112	31
-69	195	-62	56	31
151	-179	-1	124	31
-42	-239	-35	76	31
-118	-76	-35	21	31
140	-6	-14	17	31
89	169	-59	-60	31
82	312	-63	-57	31
-246	466	-31	-3	31
-390	320	-4	55	31
-120	137	21	53	31
-169	-156	46	35	31
-86	-261	74	24	31
-29	173	79	13	31
-35	482	65	-9	31
-82	15	40	-27	31
-186	-203	13	5	31
-36	105	-56	-49	31
11	2	-55	-79	31
109	99	9	-61	31
151	98	29	-69	31
-32	-194	61	-73	31
-4	49	47	-73	31
-34	542	-21	-82	31
56	368	-84	-74	31
70	122	-110	34	31
16	576	-49	118	31
169	907	46	170	31
27	790	83	156	31
-95	7	50	55	31
-72	-1046	-5	41	31
-204	-954	-57	22	31
-346	-525	-102	-21	31
-180	-438	-64	-31	31
-34	-543	-22	-56	31
105	-1162	-19	11	31
267	-714	2	42	31
161	-203	3	-19	31
277	-165	23	-112	31
-3	277	36	-169	31
-163	125	-14	-38	31
82	335	-52	-6	31
-29	294	3	-7	31
110	42	14	55	31
-98	193	-7	31	31
-428	50	15	71	31
-521	112	4	92	31
-266	351	34	48	31
562	360	80	-41	31
823	150	92	-64	31
516	376	37	-11	31
-1	287	-18	-16	31
-239	44	-49	-30	31
-49	52	-40	-42	31
-57	-9	53	-1	31
-135	923	26	23	31
-127	1454	-61	-9	31
45	-82	-119	-21	31
132	-1712	-143	-26	31
-34	-1034	-40	-40	31
-127	-356	32	-37	31
192	-277	73	-40	31
373	394	99	-24	31
-187	42	26	58	31
-228	90	-21	55	31
2	185	-38	1	31
-233	110	-51	40	31
-231	476	-12	73	31
94	254	108	130	31
527	-291	155	129	31
46	-459	32	31	31
-290	238	-37	-18	31
61	61	-82	-53	31
-55	-209	-112	-52	31
100	-163	-88	-40	31
-86	-551	-54	-103	31
-132	-225	45	-100	31
293	81	85	-21	31
326	100	70	8	31
317	-340	37	10	31
-88	-618	-8	-40	31
-204	-376	44	-12	31
-165	-484	88	57	31
-278	-398	45	19	31
-288	-122	-11	0	31
-286	86	-57	44	31
30	276	-100	54	31
54	436	-131	16	31
50	364	-94	-7	31
94	378	-7	1	31
89	745	6	-1	31
11	899	3	-35	31
-168	702	47	-27	31
-62	277	60	-61	31
-56	79	50	-17	31
50	-232	12	143	31
135	-182	23	120	31
2	165	24	29	31
-42	-253	-41	16	31
-29	-183	-27	-42	31
23	-93	6	-120	31
22	-369	31	-115	31
-85	-530	29	-29	31
-156	-434	-2	55	31
-192	142	-38	36	31
-209	203	-112	19	31
-169	129	-107	12	31
-48	-217	-17	26	31
215	-339	58	8	31
540	87	86	-17	31
252	104	53	6	31
-236	194	-9	1	31
-71	184	-47	27	31
-79	131	-45	14	31
94	138	-36	34	31
305	333	-32	34	31
226	670	2	-33	31
271	421	23	-95	31
-42	-184	60	-33	31
87	-267	94	47	31
84	21	44	-17	31
-288	-347	-2	-47	31
-114	-399	-2	-31	31
-37	-315	11	28	31
26	-350	-1	-16	31
-54	178	-22	-84	31
-209	225	-4	-19	31
-210	-54	29	6	31
11	-247	55	22	31
171	-341	84	8	31
-11	-545	70	-13	31
-68	-393	6	18	31
-47	210	2	12	31
279	536	5	57	31
246	473	-14	125	31
-174	41	-19	24	31
-253	326	-133	-13	31
-199	375	-214	21	31
-230	-390	-206	-1	31
-146	-752	-136	22	31
228	-723	-34	-9	31
383	-330	27	6	31
259	-39	65	25	31
-9	212	86	10	31
22	372	123	26	31
49	406	102	-43	31
-47	602	59	-117	31
1	510	-2	-72	31
6	577	2	-14	31
-11	849	46	-7	31
-166	424	9	5	31
-155	-274	4	-26	31
-166	-575	-1	-15	31
-5	-614	4	19	31
137	-523	6	-2	31
41	-614	-37	-25	31
-65	-619	-64	4	31
-52	-424	-26	62	31
88	-123	-36	34	31
140	49	-52	-10	31
112	-26	-12	-44	31
-57	152	21	-50	31
-123	287	20	-47	31
-165	564	-6	-40	31
-118	551	18	103	31
-67	50	29	170	31
-49	171	47	52	31
-57	103	55	17	31
-32	-246	45	-1	31
59	37	17	-32	31
-60	-54	-7	-12	31
49	-122	-8	-53	31
206	91	-50	-26	31
219	-390	-57	7	31
-88	-178	-53	-2	31
-239	132	-44	57	31
129	-218	-12	77	31
150	9	14	-11	31
-123	166	34	-42	31
-489	142	44	-8	31
-441	419	55	-29	31
123	324	75	4	31
560	-247	84	34	31
410	344	56	26	31
195	1602	22	22	31
161	573	-57	-27	31
70	-1482	-117	-103	31
99	-1257	-63	-109	31
-269	-510	-44	-39	31
-441	-588	-78	-27	31
-317	182	-37	48	31
22	314	-28	98	31
115	347	-40	70	31
-41	524	3	79	31
385	-166	45	22	31
359	-137	84	-95	31
296	-310	64	-178	31
37	-312	16	-74	31
-59	133	-32	29	31
49	421	-58	76	31
-144	441	-34	112	31
2	-104	-4	32	31
-227	206	40	18	31
-208	465	55	-3	31
-93	-97	-6	-59	31
-159	-94	-34	-24	31
-26	178	-52	-6	31
12	-90	-54	-36	31
-3	-325	-16	4	31
-79	-513	-18	35	31
37	-865	19	-6	31
115	-755	37	-2	31
46	-518	14	47	31
130	-263	20	42	31
-97	107	9	-12	31
-673	266	27	-11	31
-581	371	57	9	31
-84	124	22	-9	31
117	67	1	-21	31
485	140	19	-24	31
403	-29	11	-4	31
32	317	-6	2	31
166	467	-18	-28	31
239	484	-44	-25	31
363	381	-48	-26	31
141	-45	-27	-19	31
89	-2	1	-10	31
132	86	19	-44	31
-53	36	45	-35	31
-111	12	73	27	31
-342	-92	68	74	31
-347	-93	39	81	31
-175	262	-19	57	31
92	827	-46	56	31
-107	636	-66	-9	31
-285	-273	-74	-102	31
-25	-728	-7	-103	31
211	-493	105	-24	31
362	-44	97	100	31
-26	-3	10	130	31
-134	59	38	4	31
-214	-100	-23	1	31
-333	-600	-155	42	31
-224	-249	-155	-60	31
-334	-113	-82	-60	31
41	-55	-57	-57	31
338	-153	-31	-12	31
295	-461	15	-1	31
295	-191	-9	-32	31
169	-341	-7	-5	31
137	737	21	19	31
320	1838	7	82	31
52	803	26	119	31
-137	-575	41	90	31
118	-564	-1	24	31
119	-19	26	61	31
243	-535	43	26	31
125	-292	38	-55	31
-277	-171	0	-126	31
-689	-366	-63	-220	31
-648	-104	-16	-149	31
82	-419	33	-8	31
87	-124	70	44	31
-355	-15	90	73	31
-3	40	61	118	31
201	487	11	72	31
48	925	-20	69	31
80	987	-33	31	31
-41	-477	-69	-52	31
-244	-1009	-11	-8	31
-30	-92	34	-39	31
196	-185	4	-64	31
258	67	-15	-4	31
98	506	-26	-27	31
-158	268	9	-28	31
202	242	4	-36	31
59	58	-17	-86	31
55	329	-1	-35	31
151	411	12	26	31
-101	692	12	22	31
-80	899	-1	39	31
-314	-652	-3	64	31
9	-1238	-27	57	31
312	-722	-57	-1	31
357	-606	-102	-63	31
42	287	-105	-18	31
-129	725	-22	49	31
113	-116	69	94	31
107	50	160	83	31
233	330	166	-5	31
-98	-461	59	-23	31
-146	-249	-39	-62	31
-98	-138	-113	-117	31
-158	-367	-136	-50	31
142	-95	-82	27	31
170	-206	-43	37	31
-90	-113	-37	15	31
-513	-145	11	-8	31
-445	-234	84	-7	31
-186	-161	108	4	31
-60	-102	90	28	31
153	147	81	27	31
218	234	97	-32	31
209	278	96	-48	31
169	181	38	-1	31
120	158	-31	-21	31
-28	171	-25	-16	31
-153	138	-16	65	31
-178	257	-52	49	31
30	173	-91	-5	31
214	162	-88	-25	31
-29	288	-12	-19	31
-173	227	33	-2	31
-256	-38	37	-3	31
-191	-82	29	27	31
-117	113	16	42	31
-114	-47	-9	42	31
66	-148	-72	37	31
57	158	-99	10	31
122	615	-72	-47	31
-9	450	-42	-50	31
-93	-917	-51	-26	31
56	-1155	-61	-29	31
57	-224	-27	-2	31
226	253	22	-11	31
345	912	53	-24	31
354	506	59	24	31
62	-121	36	125	31
58	-65	24	52	31
237	-194	35	-27	31
-39	-147	24	-29	31
-62	-267	12	-44	31
-254	-244	-9	18	31
-314	-268	-37	-35	31
-133	271	-47	-45	31
-12	838	-1	-22	31
122	-297	44	-1	31
-129	-861	41	24	31
-64	-243	45	-23	31
129	-338	4	-19	31
87	-384	-28	32	31
-131	11	-26	89	31
-223	-146	-46	31	31
215	-118	-42	-40	31
345	75	-6	-6	31
184	-299	10	3	31
70	-124	22	-1	31
-72	118	46	-7	31
-119	89	21	-50	31
-31	255	-33	-47	31
37	211	-67	52	31
24	268	-44	139	31
-79	251	-12	61	31
-175	265	-9	-17	31
-211	201	14	-6	31
-164	-105	31	-27	31
-27	-149	49	-69	31
113	-77	70	-132	31
229	-65	55	-97	31
-162	-51	27	-12	31
-395	18	19	3	31
-138	49	2	6	31
213	132	-22	31	31
497	153	-23	34	31
137	114	-26	1	31
-33	115	-36	34	31
22	102	-29	63	31
-135	196	-16	60	31
-74	147	-6	43	31
19	11	20	31	31
162	-37	27	-16	31
42	144	29	-86	31
-227	517	22	-30	31
-389	318	-6	6	31
-553	-294	-4	34	31
-261	-418	12	75	31
23	-305	2	61	31
81	-314	-17	55	31
463	-158	-6	-2	31
512	-29	-13	-86	31
55	-125	-69	-168	31
-150	-259	-51	-95	31
-474	-115	0	21	31
-519	327	-11	12	31
70	472	21	2	31
629	131	17	-11	31
847	-2	18	64	31
654	-206	45	110	31
214	-211	17	39	31
-370	158	-1	10	31
-625	-199	-55	22	31
-320	-521	-27	12	31
23	-649	43	-19	31
-8	-360	37	-15	31
-130	596	32	-37	31
-198	952	14	-79	31
53	449	-1	-76	31
322	-273	37	-67	31
151	-239	52	-89	31
-80	338	22	-42	31
-287	77	-7	59	31
-49	-748	-77	31	31
173	-348	-102	30	31
117	307	-102	176	31
107	67	-44	218	31
-19	-126	0	57	31
18	-218	-22	-69	31
70	8	7	-77	31
57	-16	2	-38	31
-22	-27	11	-44	31
-47	133	4	-57	31
21	141	16	44	31
-177	315	34	-12	31
-486	182	-3	-39	31
-498	182	20	34	31
-128	85	47	44	31
270	65	57	60	31
463	268	47	41	31
498	253	21	21	31
219	269	-18	1	31
-132	-87	-7	46	31
-112	-408	-12	17	31
-158	-409	-47	-110	31
-242	-439	-90	-161	31
-241	-237	-141	-115	31
-249	-1	-41	-37	31
-79	-44	23	-3	31
-59	-50	14	0	31
-60	-14	-4	-17	31
149	-150	-62	-28	31
178	-307	-7	-45	31
92	86	69	-40	31
-85	666	69	-6	31
-246	273	37	1	31
231	-331	41	18	31
657	-174	67	71	31
567	-93	50	87	31
175	-1	21	40	31
6	370	9	9	31
87	234	-1	9	31
-133	-84	-2	10	31
-28	-97	24	67	31
44	143	9	91	31
-123	387	-19	65	31
-130	315	7	56	31
-249	-224	-6	11	31
-430	-423	-36	11	31
-522	-24	-37	-11	31
-494	287	-44	-42	31
-372	1037	-2	-37	31
-85	876	31	-36	31
313	-432	34	-27	31
678	-389	31	14	31
635	701	4	80	31
242	254	2	44	31
130	-1574	2	-25	31
102	-1322	-9	-73	31
107	-357	-24	-54	31
