File Name: not saved
Channel 1: 'EMG 1', 9000 values, raw ADC, no filters.
Channel 2: 'EMG 2', 9000 values, raw ADC, no filters.
Channel 3: 'EMG 3', 9000 values, raw ADC, no filters.
Channel 4: 'EMG 4', 9000 values, raw ADC, no filters.
Digitals combined (event=16, d=8, c=4, b=2, a=1): 9000 values, .

-7	-7	-10	-9	31
-23	-27	-39	44	31
-60	-17	-41	184	31
-112	-20	-27	196	31
-120	49	-27	134	31
-110	62	-22	-38	31
-98	26	10	-299	31
-82	-6	41	-188	31
-1	-22	72	170	31
130	16	87	161	31
130	24	69	42	31
17	-3	45	-147	31
11	-12	45	-382	31
65	1	34	-143	31
60	41	9	9	31
87	42	16	14	31
170	32	21	125	31
89	39	4	84	31
-1	16	-17	72	31
-1	7	-37	102	31
-56	5	-34	110	31
-37	0	-24	35	31
-41	-1	-20	-82	31
-44	-9	-12	-143	31
-20	-9	-8	-157	31
-26	-12	-15	-47	31
-24	-14	-36	34	31
-37	-7	-40	43	31
-39	-7	-23	87	31
-52	-10	-1	77	31
-34	-6	27	74	31
-19	-7	45	165	31
2	1	21	112	31
37	7	-14	7	31
31	9	-11	19	31
7	12	-2	-65	31
-3	12	31	-206	31
6	4	31	-138	31
-22	-9	-16	-3	31
-29	-10	-22	-37	31
-20	-14	-17	2	31
-34	-17	-12	2	31
-39	-18	-10	-34	31
-63	-4	-17	-33	31
-77	25	-24	-43	31
-77	16	-32	26	31
-87	-16	-36	67	31
-89	-53	-19	120	31
-92	-53	4	132	31
-80	6	13	105	31
18	31	25	-35	31
125	42	41	-150	31
176	45	53	-61	31
288	33	47	20	31
345	24	39	32	31
141	1	15	16	31
-5	3	-19	11	31
17	4	-27	-18	31
-19	-3	-21	-41	31
-25	-4	-24	-2	31
-62	-9	-36	32	31
-70	-9	-24	0	31
-62	-7	-16	-42	31
-98	-1	-17	-42	31
-92	-12	-4	-64	31
-90	-17	-4	-31	31
-52	-2	-12	11	31
-7	-5	-11	-19	31
39	-4	-6	2	31
44	-1	-15	6	31
34	-1	-17	17	31
41	2	-6	45	31
4	2	-1	43	31
-22	11	-6	55	31
-17	22	11	36	31
-1	24	47	28	31
8	13	57	16	31
11	-8	52	-13	31
4	-12	58	-35	31
10	5	60	-52	31
9	11	31	-47	31
-10	9	-1	-6	31
-21	9	-7	46	31
-36	-1	-4	74	31
-27	-4	-9	64	31
-19	-7	-27	19	31
-23	-5	-39	-6	31
-30	-2	-41	-21	31
-40	-17	-31	-22	31
-34	-17	-23	-6	31
-36	-9	-24	-14	31
-33	-4	-11	5	31
-7	4	-11	94	31
29	12	-16	185	31
46	37	-7	186	31
19	10	-9	115	31
-6	-13	-11	-126	31
-13	12	2	-469	31
-27	-19	7	-371	31
-36	-21	-3	-46	31
-16	55	-9	-10	31
19	129	-9	18	31
-13	92	-14	31	31
-68	-28	-11	28	31
-54	-108	0	55	31
16	-127	14	34	31
135	-51	26	59	31
154	-26	22	43	31
51	-15	20	41	31
55	46	29	31	31
73	32	34	3	31
43	47	25	7	31
7	47	2	-5	31
-35	23	-15	-5	31
-27	11	-11	7	31
-43	-19	-8	4	31
-48	-33	-19	-1	31
-41	-64	-27	4	31
-54	-66	-27	1	31
-56	-28	-21	1	31
-55	-22	-6	-3	31
-32	-16	5	6	31
-12	-6	7	22	31
29	-10	-3	43	31
63	4	0	74	31
69	5	15	57	31
27	4	20	-4	31
-55	6	6	4	31
-42	5	0	30	31
49	11	-6	-123	31
100	7	-26	-214	31
29	4	-39	-79	31
-27	-1	-41	-14	31
-9	-4	-29	21	31
-31	-2	-9	65	31
-25	-2	14	-13	31
-25	2	31	-100	31
-29	0	52	-94	31
-9	1	74	46	31
1	-2	65	148	31
28	-12	27	103	31
26	-12	6	68	31
-1	-4	0	46	31
-15	7	-11	18	31
-16	18	-15	-1	31
-14	23	-18	-2	31
-11	16	-21	-5	31
-12	6	-20	-10	31
-14	1	-19	-6	31
-9	-1	-16	-14	31
-4	-1	-2	-6	31
2	-1	-3	-3	31
-8	4	-14	-4	31
-10	14	-12	-1	31
-7	11	-19	2	31
-8	17	-25	12	31
-6	73	-21	16	31
-12	86	-20	14	31
-9	12	-16	2	31
-4	-72	-6	-31	31
-4	-145	12	-70	31
0	-113	27	-40	31
7	-16	22	-6	31
6	0	2	11	31
-2	21	2	38	31
1	19	6	-4	31
6	-16	1	-6	31
10	-15	1	3	31
4	-9	4	-7	31
5	7	6	12	31
-4	0	-1	-2	31
-13	4	-2	5	31
-5	9	-2	4	31
-11	-3	-4	6	31
4	1	-2	11	31
7	0	-2	6	31
-9	-3	-1	21	31
-1	18	-4	26	31
1	47	-1	22	31
-11	2	0	7	31
-9	-9	-1	-20	31
12	22	-1	-48	31
21	7	1	-50	31
4	21	-2	-24	31
9	17	-1	0	31
7	5	-3	1	31
-9	2	-11	1	31
-20	-12	-14	7	31
-17	-1	-11	15	31
-7	1	-6	17	31
-11	-2	-7	-5	31
-18	4	-9	-14	31
-32	-1	-14	-1	31
-24	-5	-4	1	31
-9	1	14	-2	31
-14	-6	13	13	31
-5	-7	12	9	31
6	-3	14	-12	31
29	-8	9	-17	31
60	3	14	-10	31
55	12	24	12	31
-9	12	8	22	31
-57	4	-4	32	31
-48	-8	-6	34	31
7	1	-6	31	31
102	11	-6	24	31
103	1	-2	-20	31
44	-7	1	-34	31
29	2	-7	-6	31
-6	7	-4	1	31
-17	4	7	2	31
-4	-17	16	-1	31
-9	-19	22	-4	31
-5	16	26	5	31
-2	-4	14	3	31
5	-16	10	-1	31
-6	1	26	-8	31
-20	-15	5	-1	31
-27	-7	-16	-12	31
-31	-14	-12	-25	31
-11	-12	-2	-2	31
-2	7	2	-1	31
-24	12	-7	0	31
-37	5	-19	-1	31
-26	-29	-21	-6	31
-9	-15	-2	11	31
-8	57	6	11	31
-8	84	-7	6	31
-19	-5	-7	3	31
-35	-97	-9	-3	31
-9	-100	-11	-4	31
26	-32	-3	4	31
34	4	-2	1	31
15	-5	-6	-1	31
3	17	-11	6	31
3	-1	-10	2	31
-4	-1	-8	-3	31
-9	22	-4	-6	31
-19	33	-1	-8	31
-6	40	0	-6	31
-1	0	-4	-3	31
-16	-30	-6	1	31
-1	-15	2	7	31
8	94	2	-2	31
2	135	-11	-23	31
-13	28	-11	-30	31
-27	-13	4	-22	31
-29	-32	4	-26	31
-10	-44	1	-13	31
19	-57	4	48	31
22	-186	-2	76	31
18	-126	3	43	31
11	12	7	29	31
13	-42	4	32	31
25	16	6	19	31
9	26	2	-3	31
-7	34	1	-37	31
-7	135	5	-49	31
-18	85	4	-15	31
-32	57	3	-7	31
-42	43	-1	-11	31
-36	100	-4	-1	31
-22	148	-8	-7	31
-27	-39	-13	-7	31
-39	-155	-16	-11	31
-17	-249	-13	-7	31
26	-218	-6	-2	31
39	-20	1	6	31
50	-16	6	24	31
50	9	7	14	31
30	-85	7	18	31
49	-140	10	9	31
50	19	7	-22	31
33	72	1	-26	31
33	92	-1	-21	31
6	74	-2	-12	31
-9	49	-2	0	31
-10	44	1	4	31
-15	74	2	9	31
-12	154	-2	9	31
-23	200	0	12	31
-28	98	-2	11	31
-37	-45	-9	-6	31
-40	-72	-7	-14	31
-21	-21	-2	-4	31
-1	50	-2	10	31
-8	-100	-15	26	31
-27	-213	-19	36	31
-24	-94	-16	27	31
-11	-50	-15	25	31
8	-38	4	25	31
9	16	12	4	31
9	24	19	-11	31
36	24	34	-26	31
41	47	19	-46	31
19	41	4	-33	31
-6	25	6	-16	31
-8	4	0	-29	31
-14	-17	-5	-38	31
-18	-17	-1	-19	31
2	-1	-1	-20	31
16	35	2	-11	31
1	64	1	7	31
-9	122	0	21	31
-4	144	1	38	31
-15	73	-4	2	31
-16	22	-1	11	31
-16	-45	-1	20	31
-14	-74	-10	13	31
-7	-30	-12	19	31
-12	272	-17	2	31
-36	859	-11	1	31
-69	697	-1	-28	31
-93	-102	-6	-59	31
-89	-761	-1	-64	31
-12	-1137	-1	-24	31
85	-624	2	14	31
162	-232	9	12	31
153	-249	4	40	31
46	60	-2	108	31
14	6	-2	202	31
14	120	0	206	31
-7	281	-2	160	31
-6	165	-8	119	31
-29	95	-11	-19	31
-29	-151	-11	-113	31
-24	-131	-12	-49	31
-6	-21	-14	39	31
20	21	-22	-41	31
13	166	-19	-89	31
-7	196	-11	-149	31
-26	99	12	-388	31
-26	-53	51	-295	31
-19	-161	64	-21	31
3	-163	41	-1	31
13	-59	10	-1	31
-1	7	-24	85	31
-9	77	-39	181	31
-13	122	-34	180	31
-9	78	-17	169	31
4	149	7	-33	31
-4	231	32	-480	31
-11	241	37	-405	31
-12	136	9	50	31
-22	-87	1	112	31
-6	-174	2	55	31
1	-84	14	55	31
6	-54	45	37	31
15	-52	24	73	31
1	9	-39	41	31
3	-11	-68	52	31
4	7	-57	99	31
2	11	-50	203	31
-1	1	-47	327	31
-9	32	-32	345	31
-5	79	-30	241	31
-14	277	-21	53	31
-27	323	2	11	31
-45	155	25	-160	31
-69	-6	68	-411	31
-54	-267	74	-271	31
-1	-373	24	98	31
55	-310	2	249	31
79	-220	22	141	31
60	-82	34	-105	31
47	-93	37	-409	31
21	-10	8	-431	31
9	22	-21	-299	31
16	11	-32	-60	31
-14	108	-37	37	31
-25	85	11	-245	31
-17	108	59	-226	31
-17	176	42	158	31
-32	508	-14	593	31
-57	791	-103	943	31
-80	409	-174	809	31
-108	-229	-171	222	31
-98	-814	-112	-813	31
-16	-899	21	-1451	31
116	-433	156	-1142	31
163	-184	199	-582	31
69	31	158	284	31
43	203	105	849	31
56	171	39	722	31
19	275	-55	339	31
-22	401	-102	201	31
-67	433	-92	375	31
-54	-34	-62	347	31
-39	-614	-31	-12	31
-12	-416	42	-507	31
40	-207	80	-441	31
79	-29	26	-466	31
44	234	-18	-420	31
-27	-19	24	103	31
-30	-189	114	123	31
-32	-171	132	324	31
5	52	54	301	31
10	275	-8	59	31
-28	221	-22	118	31
-21	86	-42	105	31
-24	-171	-57	356	31
-1	-115	-90	547	31
43	40	-102	659	31
60	-13	-80	516	31
39	43	-39	-31	31
-7	47	26	-858	31
-14	21	71	-1026	31
-6	60	57	-497	31
-12	33	6	-357	31
-12	44	-6	-123	31
-11	41	-42	153	31
-9	25	-72	391	31
-16	37	-83	542	31
-23	20	-84	191	31
-11	30	-45	-400	31
-19	16	-4	-660	31
-36	7	64	-267	31
-31	11	52	113	31
-5	12	-21	377	31
21	26	-73	510	31
21	19	-85	216	31
0	34	-60	-289	31
-5	41	9	-583	31
-7	22	85	-97	31
-25	-31	92	165	31
-29	-59	82	-35	31
-17	-2	9	276	31
3	8	-27	505	31
11	-10	14	135	31
-1	-11	69	-269	31
-4	-32	93	-271	31
-4	-26	70	-236	31
6	-37	56	-105	31
6	7	4	51	31
1	123	-7	32	31
2	138	-12	113	31
-12	88	-43	-42	31
-17	-34	-35	-233	31
-19	-70	-32	-11	31
-21	106	-24	153	31
-7	37	-22	360	31
9	-167	-36	528	31
21	-246	-45	369	31
36	-302	-51	278	31
53	-125	-43	-190	31
57	-48	-9	-671	31
14	-38	1	-276	31
-9	72	-9	-60	31
6	25	24	-147	31
-3	72	22	133	31
-7	69	-36	191	31
-6	50	-80	177	31
-7	132	-54	-163	31
-14	133	35	-410	31
-37	75	128	-243	31
-27	-55	156	-26	31
-1	-120	74	147	31
9	-82	4	-244	31
-2	4	-6	-353	31
-16	24	-30	65	31
-17	-4	-79	366	31
-19	-8	-85	481	31
1	2	-37	569	31
20	116	-4	127	31
5	169	54	-285	31
-16	186	90	88	31
-28	150	62	173	31
-17	-43	21	-67	31
-1	-239	-11	-7	31
32	-374	-19	366	31
57	-177	-30	50	31
39	10	-6	-756	31
11	-15	10	-620	31
-14	36	-42	9	31
-14	-77	-80	226	31
-10	-62	-41	246	31
6	-50	18	-92	31
21	-47	52	-733	31
-5	180	99	-208	31
-17	237	71	142	31
-23	317	10	67	31
-28	123	-19	462	31
-28	-263	-43	177	31
-14	-162	-57	-60	31
24	-113	-98	25	31
51	-131	-123	16	31
39	9	-72	-271	31
15	-26	17	-355	31
9	52	80	-330	31
-22	241	176	-128	31
-55	462	187	505	31
-65	480	37	402	31
-76	153	-64	229	31
-70	-256	-79	328	31
-49	-599	-79	518	31
12	-569	-54	540	31
81	-358	-19	268	31
98	-34	2	-105	31
76	36	21	-1009	31
39	4	57	-827	31
-3	123	4	123	31
-16	85	-65	31	31
-11	224	-50	82	31
1	142	-61	287	31
4	-26	-32	112	31
-8	-77	3	-7	31
14	-110	9	-187	31
31	20	-3	-337	31
16	-3	-65	-59	31
1	32	-160	608	31
-8	32	-208	662	31
-26	-15	-108	137	31
-47	17	92	-724	31
-41	21	268	-819	31
-32	141	224	62	31
-30	197	88	80	31
-24	194	65	-35	31
-12	309	120	198	31
-26	254	115	145	31
-50	-70	-12	66	31
-34	-295	-73	-106	31
8	-481	-93	84	31
55	-348	-95	277	31
81	-59	-37	-178	31
53	-100	52	-36	31
-4	3	105	-151	31
-13	7	98	-765	31
7	9	69	29	31
19	83	1	234	31
15	10	-24	-36	31
-7	62	13	299	31
-6	77	-9	279	31
-17	262	-85	771	31
-27	450	-100	658	31
-34	313	-147	562	31
-34	-62	-203	178	31
-32	-530	-150	-804	31
-13	-523	-110	-317	31
46	-218	-24	-1159	31
49	-168	171	-1777	31
14	-77	169	483	31
4	82	31	635	31
16	90	27	211	31
11	120	2	267	31
-18	77	93	-609	31
-18	56	218	295	31
-15	69	95	668	31
-10	43	7	353	31
-13	82	4	-41	31
-24	69	-21	-580	31
-15	45	-55	25	31
-4	4	-54	-268	31
3	-4	-16	-199	31
16	4	-11	411	31
15	-26	-29	139	31
1	2	-29	132	31
0	-4	-54	-39	31
3	17	-84	65	31
6	45	-64	-304	31
-1	57	-53	-590	31
0	99	-94	617	31
1	82	-226	1254	31
-27	89	-257	972	31
-50	140	-91	117	31
-67	162	168	-1310	31
-75	74	436	-1558	31
-59	-141	469	-460	31
-2	-285	181	-62	31
66	-236	-73	-11	31
86	-82	-181	711	31
64	46	-320	1608	31
42	14	-264	1790	31
20	-38	-138	1001	31
21	-10	-60	-790	31
35	-19	158	-2432	31
1	-2	244	-1327	31
-22	112	132	156	31
-50	360	145	219	31
-82	373	198	835	31
-67	133	85	-241	31
-47	-54	87	-1474	31
-21	-371	113	-1003	31
-1	-395	-23	189	31
49	-337	-120	689	31
67	-213	-156	98	31
26	193	-132	-168	31
26	39	-112	4	31
4	-179	-95	437	31
-1	-151	42	283	31
19	44	118	27	31
31	158	80	-267	31
34	34	91	9	31
-13	27	74	293	31
-11	-120	25	-140	31
-2	-59	6	123	31
2	26	4	199	31
18	-3	-9	420	31
-3	84	-156	686	31
-3	64	-267	1026	31
4	96	-275	1392	31
1	131	-352	785	31
-9	201	-237	-806	31
-23	226	24	-1931	31
-47	146	186	-1529	31
-87	133	355	-860	31
-91	59	323	352	31
-48	-53	69	352	31
2	-322	-19	-266	31
26	-435	12	-39	31
40	-224	37	340	31
72	-168	94	719	31
76	-42	74	110	31
27	2	55	-370	31
0	-16	16	-59	31
7	92	-164	434	31
13	148	-236	-297	31
-11	265	-20	-716	31
-50	140	103	-135	31
-50	-82	-36	391	31
-37	-206	-121	302	31
-4	-210	-134	693	31
52	-3	-2	1064	31
75	93	264	-418	31
26	203	322	-648	31
-44	211	211	-566	31
-74	13	-17	-851	31
-67	-112	-391	531	31
-25	-162	-472	732	31
16	-91	-149	-757	31
34	-63	29	-621	31
22	-3	75	423	31
37	163	-16	1057	31
44	125	-107	496	31
13	55	57	-650	31
-1	34	106	-1230	31
-21	-34	228	-1366	31
-31	-3	134	145	31
-19	77	-117	517	31
-20	307	-62	-74	31
-37	501	-49	689	31
-50	163	39	854	31
-70	-252	71	1137	31
-45	-400	43	916	31
34	-83	80	63	31
64	332	-16	-605	31
34	17	-117	-560	31
-11	-264	-148	-312	31
-1	-496	-81	-1131	31
26	-434	76	-1018	31
31	-36	161	906	31
30	-125	4	1491	31
-9	77	-27	-34	31
-13	242	168	-312	31
-23	397	117	-160	31
-53	602	-22	553	31
-84	247	-155	704	31
-107	95	-223	26	31
-65	37	-114	-567	31
-10	-276	85	-1644	31
45	-578	258	-795	31
85	-489	196	-49	31
137	-62	52	93	31
138	87	-32	-10	31
57	-70	-165	445	31
36	-192	-282	1727	31
26	-234	-165	687	31
1	-212	151	-1016	31
-16	-156	598	-1839	31
-49	-51	763	156	31
-37	2	417	1616	31
-15	89	20	784	31
-21	358	-390	1239	31
-37	578	-556	427	31
-50	710	-472	135	31
-26	520	-381	-43	31
-27	-72	-222	161	31
-74	-556	-186	461	31
-11	-771	-155	-276	31
96	-507	-89	129	31
117	-158	-2	-740	31
80	-149	41	-964	31
17	174	30	-536	31
-22	449	121	-948	31
-65	420	165	-171	31
-66	89	148	485	31
-12	-238	81	830	31
31	175	-26	746	31
23	421	2	-1112	31
-33	103	189	-1944	31
-100	-208	342	-303	31
-123	-269	289	869	31
-55	163	132	286	31
-37	365	63	418	31
-86	287	79	624	31
-42	115	-94	589	31
74	-384	-332	765	31
164	-622	-203	176	31
191	-563	33	-782	31
100	-318	184	-1191	31
21	-101	147	160	31
-29	133	-93	-596	31
-114	867	-288	-1207	31
-154	1902	-287	-27	31
-189	1373	-60	-11	31
-158	-846	5	382	31
-44	-1942	-74	520	31
138	-1292	-69	583	31
254	-493	-137	33	31
162	-359	-154	-363	31
-6	8	159	106	31
-97	704	260	530	31
-131	1243	77	-659	31
-150	695	-56	-674	31
-50	-654	-97	448	31
131	-772	155	-2	31
262	-260	262	264	31
229	-209	215	-996	31
113	-564	217	-1401	31
37	-541	23	-546	31
20	-204	-339	221	31
14	-55	-339	916	31
43	152	-108	1146	31
39	181	-128	1290	31
-39	210	-24	9	31
-49	261	-32	-517	31
-41	385	7	-614	31
-41	860	98	2	31
-125	1099	-39	-39	31
-182	489	63	-1461	31
-145	-555	140	-614	31
-85	-977	168	733	31
48	-358	122	852	31
104	-123	-193	1058	31
92	-132	-277	1342	31
-2	353	-112	289	31
-66	164	85	-701	31
-72	297	59	-238	31
-84	456	-204	103	31
-26	108	-178	334	31
42	24	-101	-84	31
70	-126	-32	-199	31
25	159	141	-600	31
21	198	210	-1747	31
-40	-110	363	-1042	31
-136	437	380	-140	31
-108	1191	77	414	31
-137	920	-132	-162	31
-155	-406	9	-695	31
-69	-1767	98	632	31
57	-1780	12	348	31
178	-710	-74	151	31
241	-291	-166	485	31
199	-48	-103	197	31
67	621	16	497	31
27	856	206	494	31
4	571	119	492	31
-79	150	-201	-450	31
-106	689	-124	-1707	31
-120	950	24	-619	31
-123	-379	81	1654	31
-117	-1241	170	1972	31
-7	-1217	121	1163	31
189	-705	-74	-142	31
218	-210	-231	-1551	31
140	-35	-301	-834	31
65	224	-226	-423	31
24	40	-4	-1363	31
13	90	96	-314	31
-27	159	115	903	31
-12	95	82	840	31
-3	259	-45	527	31
-4	151	-1	-11	31
-24	195	155	-507	31
-89	54	124	-153	31
-95	-93	36	197	31
-77	-35	33	417	31
-31	246	-117	1573	31
-22	1327	-180	1784	31
-120	2037	-219	1135	31
-214	705	-357	-860	31
-196	-1501	-16	-2495	31
-13	-2138	296	-617	31
184	-1566	268	1312	31
245	-828	273	604	31
165	-364	29	530	31
67	221	-365	757	31
131	910	-310	848	31
41	1028	131	496	31
-99	225	182	80	31
-28	-411	22	534	31
-10	937	175	-245	31
-40	2149	306	-2224	31
-189	995	456	-1853	31
-347	-1477	131	27	31
-285	-2126	-232	-1427	31
47	-1734	196	-894	31
389	-1004	176	846	31
377	-129	72	269	31
272	235	-67	893	31
196	78	-670	-272	31
1	583	-535	-444	31
-51	260	-204	102	31
-24	103	-223	-335	31
-65	305	-300	515	31
-15	252	-197	329	31
-58	545	16	-592	31
-198	-70	-44	-467	31
-197	-343	-141	966	31
7	2	-105	846	31
222	407	15	-82	31
123	495	216	-860	31
-118	560	360	-570	31
-195	1344	98	436	31
-249	1796	-51	-59	31
-213	869	100	-247	31
-140	-1365	205	-1051	31
-67	-1920	240	-592	31
214	-1005	136	-835	31
365	-521	152	-986	31
287	-453	72	355	31
102	-611	-1	757	31
5	70	-44	1236	31
92	320	-43	1371	31
65	295	-146	1713	31
8	70	-497	769	31
-24	-201	-376	-549	31
-90	484	14	-2068	31
-180	203	395	-1882	31
-186	-134	721	-350	31
-69	-114	593	-194	31
-39	-406	257	46	31
-38	-333	156	-224	31
-11	-49	48	-312	31
-47	563	-136	-17	31
-77	890	-214	863	31
-55	953	-232	1360	31
-44	11	110	805	31
-4	-1057	232	-232	31
155	-664	-14	-978	31
278	-276	143	-1401	31
112	-122	-176	-115	31
-70	133	-773	2080	31
-9	292	-724	978	31
-22	554	-562	-1118	31
-115	709	-277	-829	31
-118	138	-27	694	31
-33	-529	-67	1052	31
97	-337	-79	-9	31
153	249	-63	375	31
117	219	12	390	31
13	-252	203	272	31
-8	-337	332	-1679	31
-7	-68	437	-1806	31
-105	379	448	962	31
-170	514	211	1600	31
-179	214	115	899	31
-115	-474	344	215	31
-40	-1004	279	-775	31
5	-602	-1	438	31
118	-223	-264	1451	31
103	-114	-633	226	31
-12	166	-327	75	31
37	283	-90	865	31
79	647	-292	1540	31
22	1218	-32	853	31
-74	1666	335	-1331	31
-181	956	582	-2629	31
-149	-1435	274	-354	31
30	-2106	-98	1693	31
183	-1261	15	1264	31
251	-664	2	1265	31
163	-127	44	395	31
31	128	14	-302	31
-12	348	-155	-564	31
-86	710	-206	-103	31
-127	307	-131	-248	31
-79	-378	-183	60	31
31	-201	-400	631	31
107	156	-118	6	31
53	325	70	49	31
-4	522	114	244	31
1	37	442	516	31
-23	50	505	-1039	31
-78	187	336	-2726	31
-55	-487	97	-2033	31
-4	-251	-190	-885	31
4	346	-296	-1089	31
19	144	-164	-223	31
35	-221	-275	1135	31
-4	-208	-368	831	31
6	-108	-252	-37	31
39	15	170	-563	31
16	85	444	-923	31
32	51	110	-110	31
21	335	-61	-425	31
-49	414	-224	-952	31
-117	454	-74	955	31
-140	229	237	772	31
-87	-357	171	-234	31
-27	-392	-188	215	31
8	-197	-481	467	31
-2	58	-346	512	31
-6	52	-19	-562	31
55	-17	229	-993	31
1	24	138	-714	31
-19	-12	147	-883	31
159	164	332	-772	31
130	260	699	-726	31
32	133	1006	-600	31
7	-133	694	-67	31
-32	-246	165	-120	31
-20	-196	-347	-305	31
-36	-120	-878	892	31
-21	23	-1208	1346	31
-35	81	-740	1024	31
-32	318	-132	784	31
-57	671	33	-363	31
-54	242	90	-11	31
4	-399	-343	1575	31
-39	96	-601	1365	31
-81	903	-136	-1156	31
-135	388	718	-2225	31
-85	-948	993	-383	31
61	-1083	400	1153	31
123	-336	25	841	31
97	-16	-133	55	31
40	101	26	-864	31
37	-284	137	-277	31
45	-396	-137	279	31
52	407	-190	-241	31
52	563	-118	134	31
-18	11	19	258	31
-67	-451	-48	568	31
-9	-389	-112	883	31
-23	68	-32	353	31
-123	481	-105	-87	31
-242	1310	-106	-585	31
-337	1109	-32	-1302	31
-196	-484	85	-524	31
205	-1304	194	823	31
456	-951	277	-63	31
335	-252	155	-635	31
178	270	127	-186	31
-69	259	53	506	31
-238	-321	-231	1361	31
-141	-379	-40	1368	31
99	-186	-1	1086	31
234	-163	31	-1006	31
60	135	214	-1964	31
84	440	126	-1568	31
-1	793	209	-709	31
-142	668	-5	484	31
-41	262	-183	-485	31
-149	89	-74	-1304	31
-129	-276	-178	199	31
-38	-757	-175	1262	31
5	-876	-143	281	31
54	-437	-56	918	31
169	-86	79	591	31
328	183	164	607	31
126	430	234	1302	31
44	160	135	585	31
59	-79	49	-206	31
-27	-184	-14	-1724	31
-39	-41	-196	-1215	31
-133	226	-248	-800	31
-127	22	13	-1097	31
-144	-123	36	484	31
-137	-30	-183	580	31
-65	87	-256	219	31
-70	515	-303	473	31
-40	973	-43	52	31
-16	307	183	47	31
-67	-434	242	22	31
-111	64	196	846	31
-2	91	22	833	31
51	-454	-112	684	31
121	-525	-310	855	31
208	-422	-182	603	31
112	31	62	340	31
47	88	145	-425	31
46	-144	-65	-1136	31
-22	191	-285	-1265	31
-114	636	14	-785	31
-173	550	306	-1806	31
-144	-251	435	-880	31
-53	-269	340	219	31
-21	633	104	306	31
-17	865	98	1237	31
-32	-365	11	747	31
-47	-994	-122	254	31
-10	-416	-115	-1101	31
103	-436	138	-1236	31
166	-219	333	252	31
79	-80	36	621	31
24	-289	-377	1391	31
9	-611	-595	1759	31
49	-583	-489	717	31
108	20	-105	-428	31
36	-12	132	-498	31
12	164	113	-136	31
-64	376	213	-927	31
-140	710	266	-1240	31
-170	1622	168	55	31
-219	1248	73	648	31
-58	-346	-161	655	31
87	-1326	-266	1010	31
175	-995	-310	413	31
266	-365	-262	191	31
119	249	-6	192	31
-47	834	43	-188	31
-69	335	-44	-934	31
-87	-341	145	-1487	31
-103	-350	323	693	31
-83	306	350	751	31
-134	1266	238	-320	31
-257	455	-126	891	31
-141	-1245	7	-6	31
-1	-1057	69	-1226	31
9	-61	-90	-1812	31
32	-7	-166	-299	31
-18	30	-443	1565	31
-5	563	-239	1083	31
-36	624	152	-10	31
138	-287	428	-1504	31
268	-661	352	-580	31
106	384	-12	479	31
259	405	34	514	31
217	-664	132	290	31
1	-687	101	473	31
145	-412	-112	1422	31
162	-242	-313	804	31
56	177	-151	-126	31
130	221	27	-804	31
44	370	342	-650	31
-165	416	227	7	31
-182	359	-256	-317	31
-171	171	-315	-1369	31
-109	-206	-312	-466	31
-70	26	-138	297	31
-84	41	183	-90	31
-22	22	92	411	31
-22	-92	-41	-201	31
-105	-227	115	192	31
-222	284	110	554	31
-127	338	80	514	31
97	113	45	562	31
100	133	18	-272	31
55	214	32	-555	31
129	413	-94	-529	31
44	166	-107	312	31
-134	-686	-261	600	31
-54	-1018	-236	-32	31
64	-269	224	-411	31
113	269	402	-491	31
47	-49	296	-47	31
-44	-361	-219	621	31
32	-1	-599	1231	31
55	231	-114	1281	31
39	-255	244	-252	31
-27	-85	216	-1921	31
-53	112	67	-888	31
-71	4	-165	773	31
-188	583	-126	153	31
-293	1081	-25	-970	31
-365	807	107	-595	31
-455	-493	258	633	31
-406	-650	84	1696	31
-211	852	-317	1759	31
36	548	-332	-103	31
283	-566	152	-2293	31
310	-640	742	-1970	31
358	-917	866	41	31
176	-621	7	673	31
514	-295	-626	707	31
674	-489	-433	591	31
135	24	-245	81	31
332	375	-84	284	31
65	759	-23	449	31
-148	988	-92	534	31
-153	624	-45	246	31
-409	349	46	151	31
-301	-711	-44	674	31
-297	-1213	-255	1434	31
-161	-456	-282	1466	31
67	-418	-224	4	31
441	-304	-2	-2244	31
518	166	347	-2106	31
124	94	138	537	31
98	69	65	948	31
103	-136	266	176	31
-106	-21	170	-544	31
-130	91	318	-1489	31
-188	77	18	-660	31
-443	854	-218	33	31
-445	849	-58	214	31
-303	-51	-90	649	31
-183	-619	-24	779	31
42	-572	31	658	31
309	-20	195	165	31
506	294	49	-496	31
513	623	-231	-1487	31
266	866	-131	-952	31
-1	-52	429	676	31
24	-842	721	29	31
11	-444	202	-772	31
-7	-126	-282	-874	31
-55	96	-564	-279	31
-163	262	-419	-11	31
-156	-156	-150	-539	31
-133	-200	-211	64	31
-89	27	-14	158	31
-161	212	36	109	31
-155	877	85	224	31
-97	546	234	323	31
-81	-586	85	-79	31
35	-709	11	15	31
113	-336	-112	283	31
61	155	-234	407	31
-25	368	-241	644	31
-5	31	-6	283	31
-122	-79	208	180	31
-210	377	156	-181	31
-132	882	55	-592	31
-130	-1	-22	-1807	31
-70	-1124	-4	-607	31
144	-343	-39	1044	31
381	231	-115	137	31
105	175	-91	-243	31
-236	328	209	-839	31
-211	-424	306	461	31
-171	-552	46	1317	31
22	-444	-183	403	31
262	-575	43	705	31
434	76	334	110	31
219	68	258	-1863	31
76	16	230	-1567	31
173	92	-149	-536	31
-45	-49	-353	62	31
-153	175	-102	843	31
-148	406	110	-638	31
-163	614	78	-463	31
-137	287	-3	518	31
-190	-269	-2	504	31
-402	-251	-130	891	31
-613	168	-33	529	31
-603	1004	-103	858	31
-444	1732	-189	1749	31
90	963	125	1730	31
863	-771	151	567	31
918	-1456	-59	-1824	31
381	-1575	7	-2144	31
240	-1275	-281	896	31
102	-153	-390	1818	31
-130	216	-9	1474	31
-88	446	33	1529	31
-31	53	7	1010	31
198	-489	76	497	31
400	168	214	-495	31
223	-64	170	-590	31
64	-196	-87	-768	31
32	-22	-81	-1479	31
-96	4	246	-444	31
85	327	188	521	31
146	399	-55	-176	31
-173	287	15	-494	31
-271	-102	-164	88	31
-222	-7	-343	380	31
-73	67	-393	987	31
-17	19	-34	1104	31
-14	199	507	-324	31
70	22	606	-2192	31
26	2	858	-2358	31
-11	49	714	-1649	31
-95	280	-140	-1679	31
-266	1038	-624	-571	31
-323	1271	-651	390	31
-388	494	-921	64	31
-258	-609	-792	127	31
-7	-1243	-191	55	31
-85	-777	-179	-84	31
-72	-249	-272	506	31
207	-318	-2	341	31
104	-357	280	-302	31
117	-216	599	19	31
402	351	327	185	31
294	622	-74	683	31
52	477	103	868	31
31	295	585	452	31
199	-145	1148	929	31
-16	-145	604	467	31
-202	-169	-140	-1259	31
-137	-960	-661	-1853	31
-69	-730	-1081	124	31
191	455	-596	888	31
45	470	-454	-682	31
-248	262	-312	-643	31
-389	-193	148	-1027	31
-325	-865	492	-6	31
19	-127	335	1010	31
228	486	113	802	31
234	1414	209	1629	31
-107	1553	-65	1581	31
-193	-616	342	1414	31
80	-971	567	-801	31
133	-256	313	-2457	31
117	-828	55	-1659	31
56	-867	-325	316	31
143	-492	-360	801	31
316	-174	-74	-471	31
258	163	470	55	31
1	188	371	449	31
-206	193	12	344	31
-232	169	-436	929	31
-59	211	-866	459	31
-14	315	-864	-248	31
-26	522	-533	-107	31
417	1015	87	225	31
241	682	59	332	31
-242	-606	32	379	31
-117	-777	260	815	31
-271	186	297	-185	31
-358	708	504	-921	31
-398	430	361	-343	31
-248	-433	-42	241	31
192	-856	52	499	31
219	-470	-19	-361	31
461	-273	-448	-612	31
650	-193	-417	-1000	31
228	2	-213	-1972	31
-62	41	422	-1491	31
-64	348	697	301	31
-168	833	365	1351	31
-214	631	558	799	31
-219	-196	178	183	31
-97	-664	-381	-310	31
-37	-475	-305	-184	31
-221	-219	-291	-511	31
-219	-155	345	-1973	31
-212	-49	512	-936	31
-48	-90	-227	77	31
383	259	-504	398	31
378	907	-307	992	31
-34	655	-48	604	31
-138	55	-234	826	31
-31	-81	-351	698	31
1	-346	-107	786	31
4	-499	156	4	31
-154	-25	193	-820	31
-271	-399	-83	-410	31
-269	-764	-323	-456	31
-155	-404	-166	130	31
135	-220	79	1272	31
206	206	-133	1345	31
333	125	-176	372	31
662	289	86	-969	31
441	298	327	-1687	31
-16	42	545	-1069	31
-50	278	560	410	31
-87	497	664	824	31
-170	1485	451	141	31
-213	1315	-97	644	31
-380	-189	-583	501	31
-315	-1026	-653	-41	31
-59	-965	107	-546	31
183	-559	702	-382	31
73	-247	701	-314	31
-37	128	312	-484	31
247	-338	-517	-117	31
272	-623	-1319	-141	31
156	-297	-1142	119	31
-94	-101	-527	296	31
-345	401	-141	1676	31
-371	720	391	1633	31
-272	200	353	-6	31
-96	-416	262	-1457	31
14	715	179	-2290	31
94	1654	-29	-1020	31
-107	365	26	987	31
9	-1157	-181	1593	31
390	-1252	-67	1287	31
241	-599	247	60	31
27	-714	426	-1773	31
-84	-366	160	-1774	31
-61	515	-277	166	31
83	687	-255	903	31
24	11	-97	774	31
1	-563	199	1148	31
79	-75	213	1471	31
216	-69	191	1226	31
327	-182	173	-349	31
49	202	6	-1240	31
-274	459	110	-741	31
-381	471	-183	-257	31
-191	-149	-286	158	31
218	-313	71	-980	31
147	-99	153	-1104	31
-52	-177	143	252	31
113	152	-79	236	31
146	331	-220	78	31
11	513	-133	215	31
111	337	-11	300	31
182	-352	56	309	31
3	-158	39	11	31
-44	4	11	-308	31
1	19	86	-445	31
-131	287	362	-204	31
-262	185	386	423	31
-376	66	165	504	31
-397	-59	-17	148	31
-221	-130	-345	453	31
-59	-173	-591	149	31
187	-44	-543	-603	31
499	743	-629	-123	31
307	1429	-572	229	31
-148	536	-224	-802	31
-178	-1103	397	-1623	31
-125	-859	775	343	31
36	-335	344	1679	31
128	-635	34	945	31
72	-320	124	658	31
110	-188	242	-1390	31
-112	226	34	-2225	31
-127	431	-94	-957	31
-100	257	-14	60	31
-17	910	187	528	31
129	861	173	903	31
-17	-5	-151	1355	31
24	-850	-105	1416	31
103	-1390	-70	1096	31
125	-846	-183	262	31
47	-64	-143	-665	31
-201	-246	213	-1767	31
-312	-263	339	-1865	31
-62	236	435	-1565	31
261	131	390	117	31
181	75	-227	1555	31
-131	284	-355	782	31
-351	573	-266	986	31
-396	809	-42	89	31
-140	192	319	-401	31
117	-732	40	194	31
19	-706	-69	4	31
273	-60	-2	-60	31
484	272	-128	-159	31
97	448	-70	479	31
90	522	-184	1012	31
-82	475	-246	722	31
-415	100	-41	-773	31
-368	-465	130	-1812	31
-93	-596	217	-297	31
240	-210	-4	332	31
491	196	-241	-16	31
810	-85	-209	-122	31
229	-229	-223	-572	31
-185	163	-194	-29	31
-42	442	383	188	31
-333	127	644	74	31
-290	-255	31	928	31
-239	128	-270	1778	31
-91	75	-493	1286	31
222	-364	-473	-830	31
386	-166	31	-2376	31
223	-118	166	-1866	31
-158	-243	151	208	31
-87	124	-4	1638	31
-138	403	6	656	31
-339	255	413	-491	31
-424	685	562	92	31
-358	1792	325	124	31
-90	592	7	540	31
128	-1858	-259	770	31
272	-1599	-343	827	31
428	-778	-188	805	31
512	-239	-421	-340	31
277	179	-405	-1067	31
64	-489	-18	-1577	31
17	-162	199	-491	31
-43	274	274	202	31
-95	409	32	390	31
-141	568	29	540	31
-164	-209	-1	92	31
-98	39	22	-69	31
-11	392	96	-920	31
-31	-220	84	-751	31
-97	-139	87	-271	31
-93	-92	-6	216	31
-38	-214	44	161	31
-29	-31	24	-309	31
-64	62	-35	-206	31
-41	153	-78	-440	31
-98	130	72	-164	31
-227	49	160	428	31
-176	223	93	339	31
-89	492	-52	418	31
32	404	-79	364	31
191	193	58	-166	31
-25	791	187	-630	31
-57	1408	428	-863	31
157	411	230	666	31
-6	-1319	1	1354	31
174	-1821	-393	509	31
358	-915	-557	-11	31
137	-70	-165	-385	31
100	118	-155	105	31
-12	107	69	745	31
-78	-12	193	970	31
-58	-148	-52	-13	31
-100	-194	4	-1454	31
-77	-17	108	-1745	31
-178	153	17	-223	31
-241	305	-92	417	31
-147	416	-219	-766	31
-36	7	-265	-528	31
58	-16	49	-474	31
183	318	313	111	31
185	24	96	805	31
-21	-74	-181	619	31
-137	183	-118	876	31
-183	728	173	391	31
-204	822	413	742	31
-100	-487	332	584	31
207	-675	69	-1328	31
284	121	-237	-1413	31
2	80	-311	-256	31
29	-319	10	254	31
32	-1229	11	810	31
156	-1011	-164	-32	31
285	-196	-132	-880	31
-8	123	-25	-345	31
49	568	219	395	31
58	-90	91	674	31
-241	-4	-170	119	31
-240	523	-392	-291	31
-1	441	-429	-171	31
-36	1051	122	559	31
-117	862	424	782	31
-2	-252	432	538	31
16	-1018	133	746	31
315	-543	-256	731	31
506	480	-311	-141	31
164	604	-315	-1284	31
26	-182	-26	-1388	31
-102	-805	221	-458	31
-142	-533	102	712	31
46	-173	-198	964	31
-50	-128	-219	699	31
-78	-363	43	-601	31
-32	-181	258	-1616	31
-31	363	460	-1613	31
-60	439	433	-572	31
-129	98	226	565	31
-90	-333	97	430	31
-51	-155	-60	1072	31
-85	-31	-287	615	31
-84	181	-132	58	31
64	655	-12	-855	31
-118	545	-202	-951	31
-367	176	-176	172	31
-247	-356	-71	51	31
-131	-350	-6	554	31
54	-175	-4	374	31
208	203	-31	543	31
372	816	64	815	31
137	310	-22	678	31
-166	-57	103	862	31
-5	1120	418	50	31
-90	1570	207	-834	31
-195	12	-139	-630	31
-251	-490	-539	155	31
-127	-810	-428	-1176	31
173	-2043	266	-1616	31
391	-1448	161	39	31
515	-186	-143	362	31
249	-143	-145	582	31
31	167	-225	729	31
44	338	-51	547	31
135	518	168	-61	31
75	945	400	-503	31
-186	815	761	-112	31
-261	201	637	304	31
-320	-168	98	548	31
-456	257	-356	268	31
-483	-99	-907	202	31
-350	-658	-797	211	31
9	-204	-164	-42	31
486	42	9	-720	31
871	-272	129	-1093	31
704	-383	342	-1087	31
233	-186	261	-99	31
40	-169	132	799	31
-42	6	158	537	31
-43	21	-148	893	31
-87	30	-280	397	31
-111	94	-175	-64	31
-45	44	-53	-645	31
-132	129	187	-256	31
-243	146	156	378	31
-247	205	180	-289	31
-284	-14	-72	370	31
-383	-246	-266	-79	31
-75	-47	216	-182	31
377	293	410	-490	31
239	526	191	-966	31
-80	196	-110	166	31
-14	-423	-503	281	31
-21	-516	-454	295	31
22	-485	19	520	31
154	-408	171	559	31
82	-87	102	512	31
103	95	108	438	31
-47	612	143	-726	31
-60	604	77	-628	31
1	-137	-149	113	31
-105	761	-34	-1351	31
-114	1942	-47	-843	31
-141	-10	-103	-156	31
-120	-2105	14	203	31
30	-1483	43	992	31
225	-767	215	469	31
148	-449	151	785	31
-73	393	-105	1185	31
-123	141	-304	1037	31
-173	26	-140	1077	31
-185	317	286	55	31
-100	-150	432	-2344	31
-75	-242	236	-1833	31
112	-128	-96	-557	31
388	-368	-129	-871	31
294	-178	25	631	31
102	262	34	908	31
30	643	-135	955	31
-83	919	-320	516	31
-150	556	-348	-297	31
-138	203	-153	-117	31
-136	-221	98	660	31
-86	-955	99	867	31
-42	-676	149	127	31
65	-184	301	-612	31
185	67	157	-698	31
-42	842	-130	-195	31
-201	585	-358	-777	31
-65	-321	-484	-711	31
49	-299	-150	-850	31
110	-257	255	-287	31
-57	-179	108	727	31
-196	246	-116	203	31
-2	206	-227	290	31
180	56	-188	-471	31
177	-34	18	-408	31
304	141	196	239	31
333	592	469	503	31
-39	531	255	1217	31
-50	212	68	1267	31
93	-254	284	1706	31
-89	71	8	1287	31
-143	968	-270	-589	31
-64	175	-223	-2346	31
-12	-1113	-77	-2017	31
-171	-1190	53	-1240	31
-137	-815	64	-1351	31
9	-323	-9	21	31
-15	18	-1	7	31
98	115	45	69	31
39	371	16	383	31
-71	791	2	289	31
-79	1312	1	793	31
-99	799	63	640	31
-54	-797	29	774	31
50	-1212	89	218	31
6	-399	351	-403	31
50	82	190	-281	31
164	112	-378	-116	31
-42	63	-574	193	31
-44	-184	-476	417	31
69	-393	-268	-22	31
155	-208	170	-315	31
281	-27	697	-191	31
117	16	1040	-321	31
-93	118	699	2	31
-110	376	223	714	31
-125	746	-457	216	31
-138	735	-838	390	31
-83	155	-399	853	31
-87	-665	-302	408	31
-41	-874	-186	114	31
2	-449	113	-1570	31
-44	-27	53	-1296	31
-74	502	60	-499	31
-50	729	93	-501	31
-47	320	-208	649	31
-127	-439	-323	559	31
-176	-563	-371	656	31
-202	52	-327	721	31
-74	559	-115	608	31
17	1054	-98	246	31
56	92	152	-869	31
202	-1162	373	-1881	31
98	-568	520	-890	31
-53	-89	619	804	31
-242	427	385	157	31
-333	710	36	-36	31
2	-201	-259	-299	31
438	-694	-345	60	31
600	-344	-131	1267	31
299	174	86	1322	31
-86	55	-11	864	31
-75	-434	12	-246	31
72	-169	207	-590	31
91	489	175	804	31
214	335	-75	531	31
132	-163	-80	-628	31
107	-120	21	-373	31
204	-1	235	-1696	31
-203	-418	370	-923	31
-161	-359	60	-47	31
57	300	-154	-243	31
-15	580	-310	583	31
-150	806	-307	68	31
-233	426	-174	1226	31
-190	419	57	1730	31
-277	513	125	1129	31
-101	-611	-176	-203	31
290	-1264	-243	-2090	31
526	-991	-140	-1487	31
181	-306	-262	-660	31
52	-140	-353	-417	31
92	13	-135	-769	31
-93	304	323	-1242	31
-71	246	700	155	31
-166	431	577	1495	31
-223	196	193	1277	31
-302	414	-313	873	31
-328	912	-473	-206	31
-349	215	-287	-267	31
-299	-378	-183	591	31
-50	-259	19	318	31
134	-715	98	315	31
439	-543	211	180	31
537	-96	140	-15	31
276	-440	-52	70	31
122	-82	-107	-751	31
74	51	80	-1354	31
-67	354	419	-241	31
-123	1152	167	266	31
-155	763	109	-187	31
-219	-417	191	39	31
-327	-871	-62	136	31
-492	-210	16	445	31
-444	263	-126	678	31
-273	195	-325	330	31
-12	-159	-366	373	31
694	-458	-371	317	31
1117	-179	-291	-480	31
428	-79	-170	-1116	31
-49	-121	318	-1035	31
-112	88	660	-511	31
-340	165	662	-569	31
-180	153	248	-276	31
-246	97	-370	587	31
-72	102	-566	772	31
209	60	-599	830	31
-41	136	-251	704	31
-91	710	395	422	31
-120	411	360	-19	31
-216	-576	112	-224	31
50	-437	79	-239	31
432	-12	38	-2	31
316	238	14	250	31
-16	330	-100	189	31
-233	296	-143	203	31
-156	281	-122	-104	31
130	-527	37	-52	31
59	-880	92	24	31
-146	-239	19	-64	31
-194	359	-19	-338	31
-379	134	-49	-427	31
-304	-305	72	137	31
247	-7	130	-140	31
754	-317	46	-290	31
504	-545	-43	-4	31
138	107	-67	-23	31
196	270	-96	492	31
-124	288	-45	792	31
-231	353	-14	688	31
-270	48	-71	403	31
-295	98	-27	-192	31
-94	176	42	-951	31
65	89	186	-1116	31
238	1214	138	-337	31
107	1420	75	-338	31
10	-437	205	32	31
-98	-1229	166	181	31
1	-960	102	-532	31
128	-902	-64	229	31
41	-714	-67	726	31
76	-251	-72	417	31
-65	72	-187	-437	31
-240	725	-23	-491	31
-342	1322	-205	231	31
-257	440	-333	132	31
77	-648	-215	79	31
277	-625	-138	-378	31
112	-199	77	-113	31
-155	-375	171	689	31
-336	-499	247	648	31
-234	-85	143	148	31
-41	14	-39	25	31
96	176	-38	-406	31
527	311	107	-820	31
229	224	82	-209	31
-183	286	-97	248	31
-98	289	-85	552	31
-452	178	14	637	31
-398	-189	140	551	31
-264	-222	259	70	31
-98	-22	304	-657	31
355	37	61	-856	31
520	1006	-148	-713	31
405	1868	-150	-176	31
217	838	-249	368	31
240	-1217	-380	21	31
64	-1780	-230	64	31
148	-792	92	194	31
186	-482	27	-70	31
-107	-163	-21	126	31
-221	194	-13	204	31
-224	-4	-53	345	31
-83	319	161	208	31
-24	260	249	-22	31
-2	31	143	-148	31
-192	387	-31	-94	31
-333	1251	-170	149	31
-289	2014	-231	148	31
-225	786	-173	166	31
2	-1759	-64	-39	31
325	-2153	-11	36	31
320	-1034	106	151	31
310	-158	127	-211	31
648	64	-10	30	31
201	6	-132	151	31
-265	19	-87	-427	31
-449	375	191	-377	31
-632	311	452	-46	31
-202	231	414	673	31
-77	249	75	590	31
399	676	31	-635	31
767	581	109	-292	31
358	-511	-227	372	31
128	-625	-286	326	31
-192	-167	-161	-383	31
-84	-250	-110	-1028	31
-38	-198	-51	-119	31
-117	49	-70	-656	31
-3	140	-24	-699	31
-144	153	3	407	31
-127	187	-29	158	31
-199	-45	-73	416	31
-165	-324	65	494	31
-69	-24	85	238	31
-64	7	-5	158	31
-37	-88	-5	-103	31
-135	16	-51	-269	31
-60	-80	17	-181	31
58	70	112	221	31
62	11	138	474	31
-74	47	36	188	31
-39	371	-55	16	31
-53	400	-11	240	31
-420	107	2	398	31
-410	-186	102	122	31
-47	-114	269	-674	31
51	163	163	-441	31
-6	582	-118	467	31
338	389	-363	500	31
173	17	-353	281	31
-219	482	-7	-290	31
187	37	16	-883	31
409	-1305	57	-769	31
522	-1560	194	-122	31
418	-690	112	338	31
70	838	106	502	31
60	1153	-118	562	31
44	-275	-229	332	31
-17	-1222	-189	-126	31
16	-1031	-114	-362	31
-93	-586	95	22	31
-324	-174	69	-239	31
-57	383	7	-497	31
324	437	7	-233	31
36	274	19	-126	31
-186	157	70	102	31
-181	324	9	101	31
-265	504	-47	236	31
-142	-118	-81	421	31
-152	-77	-60	327	31
-145	442	70	-103	31
-312	722	-41	316	31
-472	448	-255	911	31
-280	-455	-132	191	31
-210	16	119	-240	31
332	345	472	-858	31
736	-714	553	-1265	31
526	-882	199	-264	31
307	-330	-40	408	31
375	49	-193	396	31
407	217	-225	234	31
59	221	-148	26	31
20	-26	-138	-75	31
-77	-226	17	-472	31
-95	88	123	199	31
-26	712	77	153	31
-238	1492	126	-295	31
-251	516	-100	120	31
-216	-1451	-194	-355	31
-164	-1081	-103	-215	31
-12	-224	-19	-249	31
49	573	108	87	31
-122	2004	47	362	31
-209	807	-7	80	31
-190	-1534	-92	89	31
-142	-1399	-10	-193	31
108	-500	29	139	31
208	-413	-21	303	31
192	-312	38	121	31
131	-11	56	116	31
44	482	22	208	31
-127	567	-61	198	31
-352	-29	-40	120	31
-223	-225	-30	-52	31
-194	-114	56	-326	31
-150	-31	50	-102	31
133	49	-59	-29	31
61	233	-31	45	31
1	446	-188	311	31
146	434	-321	147	31
-59	444	-252	-39	31
-143	237	22	-338	31
230	-240	295	-714	31
434	-187	227	-183	31
321	189	76	251	31
-56	201	20	-150	31
-314	-98	40	-4	31
-262	-441	32	-54	31
-77	-23	22	-75	31
173	944	37	425	31
261	1392	199	466	31
119	130	366	151	31
93	-1613	169	197	31
143	-1199	-221	586	31
65	-786	-476	555	31
-67	-829	-280	259	31
-251	90	8	-750	31
-236	264	118	-1474	31
-138	-3	150	-776	31
-22	572	82	131	31
72	1403	64	304	31
29	719	7	256	31
114	-593	-12	519	31
227	-460	16	734	31
64	-591	58	875	31
-9	-1004	73	390	31
24	-399	41	-637	31
123	-131	-7	-1120	31
350	-32	-172	-602	31
18	206	-244	-400	31
-82	135	-122	-526	31
69	229	60	-131	31
-73	182	62	120	31
-7	120	-6	130	31
-89	180	70	-214	31
-141	130	143	46	31
-201	225	-18	110	31
-244	508	-189	-42	31
-163	816	-162	118	31
-135	380	-60	-16	31
-4	-457	-8	737	31
108	-486	-138	1047	31
141	-230	-147	885	31
143	-138	-112	683	31
168	74	42	-160	31
-21	238	274	-1074	31
-129	208	330	-1649	31
-95	-189	148	-833	31
-120	-267	-173	43	31
-22	-34	-63	114	31
-24	-98	-39	716	31
-57	169	-142	558	31
-87	474	-19	92	31
-129	596	69	-175	31
-172	189	262	-448	31
-193	-233	323	336	31
-63	631	74	617	31
53	776	-109	602	31
87	-710	-87	446	31
254	-1459	57	-754	31
188	-893	149	-1293	31
-194	-440	-17	-194	31
-398	-212	-107	234	31
-653	251	-45	-292	31
-700	1002	-123	-82	31
-383	2023	-139	197	31
277	426	-41	582	31
888	-2035	-70	218	31
812	-1535	-54	-539	31
936	-561	36	-496	31
730	-407	67	-38	31
189	194	59	115	31
319	164	32	36	31
-15	582	-15	409	31
-317	955	-16	941	31
-388	277	-79	1049	31
-538	-290	-193	237	31
-145	-235	-250	-370	31
-175	63	-160	-873	31
-22	166	152	-1014	31
442	7	259	-247	31
79	-201	279	124	31
-26	-131	143	250	31
197	244	-72	292	31
-18	300	-127	521	31
-191	-31	-196	770	31
31	-14	-79	491	31
80	140	15	-151	31
4	141	52	-1090	31
-59	-52	89	-1168	31
-210	-397	64	-355	31
-12	-163	60	-214	31
-86	66	-13	-44	31
-61	-15	-37	555	31
158	50	-79	441	31
-31	-41	-82	504	31
-37	217	-46	267	31
14	418	-59	-467	31
-110	-23	-31	-306	31
-168	-220	112	-335	31
-228	345	295	36	31
-277	856	197	627	31
-183	314	16	82	31
-122	-420	-96	-475	31
-58	-382	-15	2	31
157	155	42	661	31
201	891	14	-211	31
13	1192	150	-680	31
13	-659	72	-411	31
60	-2044	-50	-332	31
94	-737	-71	134	31
186	-662	-30	142	31
54	-763	6	110	31
-39	-36	34	148	31
-10	204	82	180	31
-92	594	-4	209	31
-237	-315	-64	95	31
-327	-421	-142	148	31
-168	174	-218	160	31
-3	-60	-201	145	31
26	246	-191	-59	31
24	564	-89	-304	31
-178	680	85	-172	31
61	-19	82	239	31
451	-263	-3	383	31
214	518	-66	245	31
208	268	-100	167	31
280	-222	-114	472	31
17	85	-115	743	31
-95	451	-50	634	31
187	-267	-55	246	31
327	-753	-9	-1015	31
298	-186	145	-1271	31
358	-279	359	-383	31
-61	-52	510	88	31
-42	194	313	320	31
-107	80	73	-356	31
-551	218	-111	-357	31
-597	-166	-166	-416	31
-496	-177	136	-1070	31
77	60	136	-342	31
107	161	6	63	31
-148	434	19	197	31
-85	788	-126	396	31
-114	1094	-151	54	31
319	341	-47	202	31
337	-1018	44	183	31
158	-1008	-21	224	31
383	-316	-152	331	31
45	79	-181	-84	31
-217	617	-70	-75	31
-217	353	-7	141	31
-81	-135	2	193	31
195	-312	16	396	31
118	-449	-125	377	31
49	-45	-52	-201	31
-12	-126	5	-693	31
-60	-257	9	-377	31
-18	-153	52	385	31
24	-236	14	401	31
-3	31	7	340	31
-87	29	22	200	31
-158	226	120	-297	31
-377	626	54	96	31
-506	472	-11	244	31
-492	214	0	-136	31
-298	322	-19	29	31
140	162	-163	25	31
306	-538	-288	144	31
148	-833	-177	180	31
433	-609	12	-148	31
699	-146	224	-341	31
380	-36	181	-544	31
163	-115	14	-208	31
19	39	-48	-337	31
-37	61	6	-297	31
-124	294	135	803	31
-208	1138	145	219	31
-193	1997	36	-836	31
-249	480	-83	-128	31
-156	-1931	-118	340	31
-108	-1774	-148	450	31
6	-1029	-6	188	31
91	-576	247	-544	31
-128	234	321	-172	31
-257	14	156	88	31
-203	-229	-90	121	31
-32	26	-15	438	31
297	173	60	153	31
305	226	-63	-256	31
193	158	-27	-296	31
273	244	-96	133	31
95	174	-177	-60	31
-46	475	-41	-349	31
46	938	-14	137	31
-92	264	-32	264	31
-214	-575	-54	224	31
-186	-389	2	233	31
-277	-115	109	107	31
-204	32	76	98	31
-5	332	16	-130	31
62	375	-65	-221	31
300	185	-72	-142	31
318	-124	-65	170	31
-143	176	-44	813	31
-222	125	-108	1072	31
-107	-108	-312	955	31
172	854	-252	112	31
517	881	7	-1373	31
189	-398	227	-2086	31
-81	-861	314	-1219	31
-72	-561	289	-547	31
46	-421	148	-44	31
16	-129	-24	492	31
-460	190	-38	178	31
-596	479	69	175	31
-575	266	-34	182	31
-311	-438	-169	389	31
649	-315	-127	774	31
1029	79	-120	300	31
242	115	-12	-461	31
3	-317	45	-564	31
65	-385	57	-194	31
-84	-6	4	140	31
307	-83	-94	440	31
112	59	-85	698	31
-54	82	-4	791	31
58	55	132	282	31
-175	217	106	-529	31
-84	149	160	-375	31
-85	209	307	162	31
-242	484	340	-393	31
-406	1357	90	-279	31
-477	1428	-227	496	31
-239	-416	-132	650	31
226	-1148	-7	610	31
405	-430	-168	-7	31
137	-840	-294	-474	31
111	-1013	-252	-582	31
108	-348	-171	-887	31
11	-296	-57	-920	31
-17	-17	-82	-608	31
-132	208	-30	175	31
-93	108	214	-363	31
152	186	433	-444	31
92	59	360	386	31
-67	83	7	529	31
-9	95	-133	1140	31
-150	31	-111	420	31
-195	0	-166	-140	31
-278	-64	-111	-263	31
-357	32	-54	-107	31
-24	130	-14	-170	31
159	418	104	-224	31
41	727	42	335	31
-98	593	-28	156	31
-316	316	-147	1010	31
-199	-139	-239	1713	31
264	-865	-203	1121	31
540	-641	-107	-634	31
713	-72	84	-1986	31
297	-251	281	-2022	31
-128	-57	467	-953	31
-199	55	282	571	31
-81	45	90	542	31
73	274	62	581	31
-26	332	-137	174	31
229	57	-183	-362	31
133	-235	-51	354	31
-39	571	54	615	31
-29	1132	-82	609	31
-282	211	-133	780	31
-392	-792	-75	860	31
-373	-826	-62	360	31
69	-485	122	-484	31
568	-246	41	-842	31
159	-489	-174	-1130	31
-208	-646	-140	-909	31
165	-76	-47	-515	31
240	55	-83	-563	31
-7	-11	-179	57	31
-122	-138	-120	-257	31
-135	-131	89	-496	31
-197	149	196	627	31
-150	118	182	516	31
72	258	163	4	31
186	213	90	224	31
91	153	85	189	31
168	285	56	-36	31
221	109	-42	398	31
-60	148	-17	588	31
-41	280	-10	454	31
-100	270	9	125	31
-199	237	21	-488	31
-158	199	-29	-907	31
-203	-8	7	-673	31
7	-497	-19	357	31
-11	-357	-45	521	31
45	-11	14	312	31
246	-31	31	-47	31
6	280	-18	41	31
-132	447	-85	1232	31
-120	317	-216	1777	31
-260	40	-269	1312	31
-337	-255	-177	-481	31
-167	-310	-113	-2258	31
-14	-18	57	-2400	31
-6	936	242	-1890	31
32	806	396	-812	31
-45	-932	396	1060	31
244	-1425	204	1910	31
482	-678	28	1847	31
190	-363	-95	1706	31
161	377	-218	861	31
-89	1249	-279	-580	31
-233	912	-71	-1711	31
52	-332	163	-407	31
13	-1068	254	245	31
-65	-581	214	184	31
16	-145	95	542	31
168	-115	16	-160	31
252	-193	-183	-297	31
-294	211	-178	-133	31
-618	1064	-97	194	31
-113	368	-222	36	31
59	-722	-156	-178	31
506	-747	-101	80	31
710	-665	-52	311	31
173	-163	63	469	31
235	158	153	-538	31
136	133	177	-722	31
-95	507	41	-492	31
-77	441	-165	-964	31
-219	247	-315	-374	31
-222	291	-157	-79	31
-185	-17	-50	160	31
-70	-273	-16	122	31
-28	-123	164	-615	31
-63	-17	165	-641	31
-165	175	129	-27	31
-478	924	-60	902	31
-646	1683	-545	227	31
-629	1114	-628	-761	31
-56	-585	-24	135	31
578	-1547	438	374	31
590	-1320	455	178	31
590	-676	272	168	31
427	36	95	-210	31
19	707	356	-209	31
-14	469	699	-395	31
-70	-312	519	-47	31
-124	-144	44	403	31
7	-31	-328	666	31
-120	-525	-628	1067	31
-36	-593	-583	1139	31
27	-7	-140	688	31
-54	902	43	-37	31
-7	517	17	-1649	31
-110	-640	-12	-1001	31
-70	-161	-238	1135	31
-26	889	-138	-714	31
-60	748	202	-305	31
-57	-541	264	594	31
23	-1233	207	-273	31
314	-535	47	-5	31
213	44	-82	-150	31
58	304	-130	780	31
-43	82	-108	649	31
-137	-379	95	443	31
-34	-193	122	6	31
-235	-12	-91	-883	31
-315	-87	-322	-1366	31
-269	-41	-242	-1163	31
13	102	-20	271	31
116	378	-59	216	31
-208	291	-32	729	31
186	103	21	1313	31
441	336	69	747	31
139	290	114	290	31
-176	290	184	-572	31
-273	705	312	-809	31
-21	275	404	-890	31
57	-586	438	-1356	31
170	-50	180	-607	31
417	1370	7	155	31
143	1704	-67	224	31
-208	-53	-284	248	31
-21	-2045	-148	-327	31
-9	-1851	8	-617	31
9	-1152	-196	69	31
-229	-599	-136	562	31
-375	861	8	135	31
32	975	-94	154	31
15	380	-133	618	31
356	-452	-359	686	31
519	-813	-477	-67	31
165	-180	-201	66	31
161	4	22	613	31
-4	459	-20	355	31
-118	90	73	-428	31
-223	93	591	-1701	31
-327	729	898	-871	31
-312	732	438	1077	31
-320	525	-194	531	31
-180	-616	-310	188	31
-30	-715	-415	215	31
221	-644	-321	-1505	31
189	-830	-65	162	31
181	29	97	1825	31
317	356	234	677	31
19	1022	-65	-381	31
59	308	-395	-1994	31
-28	-798	-219	-546	31
-100	-128	-70	1171	31
-17	259	14	-252	31
-314	271	179	-155	31
-244	-232	-53	284	31
-233	-13	-170	-152	31
-14	301	-122	95	31
367	-106	24	-55	31
255	-50	176	9	31
97	-68	190	800	31
109	244	102	1359	31
-1	944	-160	1368	31
-132	755	-108	1059	31
-123	-381	-18	-375	31
-170	-1318	28	-1010	31
10	-1177	142	-484	31
77	-517	262	-1919	31
-22	-346	321	-1701	31
-127	-9	206	413	31
-267	356	112	726	31
-215	160	-3	1045	31
-85	296	-64	1245	31
278	698	-70	763	31
541	724	-88	-225	31
35	24	-34	-1247	31
-156	-434	96	-148	31
267	-281	201	514	31
166	-297	116	100	31
33	26	-13	-298	31
-211	329	-116	-530	31
-777	883	-289	366	31
-848	1336	-220	286	31
-400	-110	-38	135	31
530	-1334	80	-151	31
1238	-857	333	-1039	31
607	-299	239	-297	31
-37	84	-136	555	31
-32	65	-339	552	31
-41	90	-387	-435	31
232	305	-258	-1267	31
201	228	-126	-408	31
-7	1053	-117	94	31
-203	1524	-91	-239	31
-469	304	175	39	31
-544	-641	335	1053	31
-467	-383	123	1060	31
-70	-1008	53	-963	31
224	-1669	72	-1274	31
399	-447	-58	10	31
561	-204	-80	933	31
426	-392	-72	996	31
122	-103	-18	-199	31
28	-112	193	-682	31
-45	159	371	-1057	31
-102	134	586	-313	31
2	250	337	755	31
-59	258	-16	37	31
-116	305	41	517	31
-199	558	-257	-86	31
-262	508	-310	-1272	31
-328	517	-216	-317	31
-419	565	-337	-843	31
-282	-82	-229	-481	31
-70	-991	-155	110	31
216	-606	-256	165	31
484	-305	-274	557	31
284	-220	13	144	31
-50	41	230	264	31
-88	-79	508	-74	31
-117	233	635	-79	31
158	433	338	372	31
218	616	-117	479	31
-98	408	-439	785	31
1	167	-536	1335	31
-1	173	-633	1615	31
-61	-351	-462	953	31
-47	-136	-108	-845	31
-206	740	312	-1089	31
-355	841	467	498	31
-350	-789	289	-499	31
-57	-1697	-100	-1631	31
177	-287	-548	-1060	31
359	502	-309	-985	31
217	28	177	-617	31
76	-611	359	-127	31
193	-31	439	219	31
65	580	355	342	31
46	241	261	1035	31
-16	532	153	1247	31
30	5	105	187	31
-65	-625	48	-676	31
-223	113	-20	-190	31
-126	151	-22	1368	31
-173	-850	-193	688	31
-1	-675	-64	-666	31
279	-60	-44	-1641	31
418	-119	-269	-246	31
217	346	-235	1684	31
-133	315	-156	194	31
-259	132	182	-1202	31
-210	16	554	-1146	31
21	-373	543	159	31
11	-59	423	494	31
-117	384	65	384	31
-176	623	-453	-350	31
-422	484	-567	-623	31
-613	-91	-350	80	31
-282	-572	-33	136	31
426	-82	83	1225	31
1033	968	51	1686	31
744	1403	-297	1769	31
-86	657	-683	1039	31
-114	-1183	-431	-1141	31
9	-1485	-110	-2485	31
-63	-398	317	-1908	31
300	-310	689	-140	31
422	-355	538	287	31
-102	-114	378	631	31
-55	-10	211	1116	31
-77	-1	-214	1123	31
-310	-79	-290	478	31
-177	105	-145	815	31
-307	395	-119	501	31
-171	713	-67	98	31
62	518	-192	-248	31
272	-489	-203	-271	31
85	-459	-80	127	31
-32	-18	-5	-304	31
10	-158	42	215	31
-252	282	193	605	31
-92	465	323	1290	31
-82	1273	-73	1210	31
-88	1896	-462	400	31
-4	-228	-346	-1673	31
50	-2030	-208	-2683	31
108	-1345	55	-669	31
90	-631	506	788	31
94	-456	499	544	31
-108	65	194	469	31
-42	181	42	718	31
37	493	-184	757	31
-34	509	-289	563	31
-87	315	-107	51	31
-118	598	143	-806	31
-130	-255	385	-1203	31
-166	-592	314	-1520	31
-10	-28	-98	-57	31
181	69	-361	1186	31
304	237	-382	1075	31
219	-347	55	-24	31
59	-633	889	-2085	31
-61	-116	1329	-1725	31
-170	-76	790	1259	31
-173	284	-289	1624	31
-139	300	-993	291	31
51	73	-1137	346	31
173	-110	-750	-68	31
-13	-348	-289	-259	31
-75	55	-139	124	31
-22	-41	-83	-26	31
-31	-13	-48	-306	31
6	333	33	-197	31
-59	478	191	109	31
-49	823	221	-139	31
-143	927	98	-117	31
-291	427	-74	-552	31
-105	-852	-163	-735	31
-33	-831	-92	-802	31
-46	-36	-22	-1166	31
150	-386	86	-466	31
203	-595	179	17	31
253	-224	117	213	31
528	226	34	80	31
395	-110	-28	-8	31
-119	-108	-151	593	31
-415	404	-317	985	31
-466	378	-146	-44	31
-305	398	274	-1194	31
192	-217	468	-1530	31
822	-826	396	-1704	31
526	-466	434	-863	31
11	-78	443	-701	31
64	208	176	-315	31
-188	520	189	449	31
-166	446	-26	469	31
-126	135	-321	481	31
-148	55	-267	317	31
-142	313	-390	741	31
-474	265	-226	204	31
-499	-211	58	-176	31
-188	-492	44	160	31
337	-474	6	-115	31
487	-401	-11	-341	31
470	-354	-165	-509	31
208	11	-236	258	31
-100	126	-139	281	31
133	115	-4	780	31
-76	431	47	1772	31
-44	424	-255	1014	31
-9	183	-383	517	31
-173	-159	-248	-442	31
-77	-140	-53	-571	31
-160	647	217	-946	31
-83	1349	208	-2071	31
-153	756	297	-343	31
-200	-647	385	1403	31
-69	-1510	163	344	31
103	-1507	291	-564	31
130	-689	229	330	31
34	-81	-52	449	31
40	118	6	509	31
-6	614	-16	1097	31
75	550	-148	633	31
59	289	-343	194	31
22	-120	-216	-907	31
-1	-327	-36	-1374	31
-57	169	-29	425	31
-19	-208	21	868	31
-140	-394	-43	-225	31
-257	9	49	-259	31
-395	20	-12	-2	31
-176	285	128	-172	31
406	519	461	-35	31
489	244	363	557	31
175	-214	188	235	31
17	-126	-203	-47	31
14	104	-408	-62	31
-193	104	-284	98	31
-266	475	-127	251	31
-272	697	-156	75	31
-368	212	-266	-55	31
-14	-492	-72	-90	31
348	-387	1	890	31
469	72	2	558	31
547	156	170	-757	31
183	203	60	-878	31
-188	-103	-152	-1549	31
-112	-613	150	-1574	31
9	-655	303	62	31
268	-277	221	566	31
80	-203	184	754	31
-208	-39	-75	397	31
29	160	-152	-799	31
-14	119	-112	-517	31
-146	443	-115	-533	31
-158	442	-123	-167	31
-160	273	-100	462	31
-66	116	-10	-92	31
87	-284	100	1	31
167	-388	161	461	31
41	-332	121	1112	31
23	-270	31	1165	31
34	42	-161	207	31
-58	230	-261	-625	31
-37	125	-89	-77	31
-24	41	238	635	31
-4	-90	354	367	31
-7	-28	108	220	31
-68	0	-138	-192	31
-130	-25	-90	-391	31
-145	180	-76	-400	31
-32	647	-142	-487	31
-67	1790	14	-451	31
-168	1552	89	-6	31
-185	-967	23	-140	31
-186	-2106	-30	-155	31
-6	-844	-32	355	31
148	-339	-31	284	31
167	-563	-25	241	31
143	-110	141	-292	31
70	-249	221	-262	31
51	-180	128	357	31
-33	92	49	223	31
-140	13	2	-115	31
79	438	-135	-213	31
320	682	-335	145	31
276	558	-325	565	31
80	277	-204	476	31
-85	14	-50	92	31
-193	-545	191	-62	31
-525	-753	152	901	31
-813	464	112	416	31
-933	1021	262	-1397	31
-615	229	52	-545	31
315	-582	-176	-322	31
1048	-824	-112	-759	31
1169	-269	-11	-272	31
1029	-4	282	-339	31
537	-139	482	492	31
97	228	373	290	31
213	867	158	98	31
0	553	-176	53	31
-113	-440	-504	-303	31
-6	-676	-403	132	31
-79	-413	-280	506	31
-42	-70	-352	842	31
-199	75	-147	353	31
-337	257	-67	-93	31
-307	512	-2	47	31
-266	363	140	34	31
-328	-203	120	-154	31
-274	-362	66	85	31
-162	180	29	-200	31
-90	186	24	-229	31
75	143	-56	193	31
44	-75	-52	250	31
132	-369	64	282	31
150	292	161	-310	31
-60	585	142	-566	31
85	614	50	12	31
85	702	47	575	31
-63	482	100	787	31
-57	386	93	986	31
-102	-370	16	235	31
-77	-1320	6	-1122	31
-70	-914	85	-2102	31
26	-622	146	-953	31
230	-769	-2	530	31
10	-202	-244	102	31
-196	-485	-117	219	31
-89	-512	32	-179	31
-68	17	-75	48	31
227	83	-216	723	31
350	518	-395	461	31
128	383	-270	470	31
59	215	6	240	31
-148	249	82	224	31
-581	369	60	389	31
-982	385	87	-614	31
-1028	-142	222	-1497	31
-664	-44	208	-676	31
-74	171	157	-453	31
1259	149	226	-74	31
1902	60	240	552	31
767	145	165	502	31
395	77	92	461	31
259	-295	89	433	31
-46	-161	102	661	31
140	-65	64	136	31
-84	209	-25	-584	31
-130	335	-146	-835	31
-256	328	-332	-209	31
-233	715	-275	181	31
-143	447	22	130	31
-222	-225	82	386	31
-262	186	83	468	31
-472	573	87	833	31
-446	-986	36	600	31
-326	-1697	-65	-101	31
125	-598	-173	-638	31
511	-532	-327	264	31
534	-248	-671	1444	31
386	259	-648	-39	31
120	-32	-388	-1929	31
29	211	135	-2298	31
-104	276	585	-832	31
-148	578	403	898	31
-141	548	286	842	31
-112	-332	225	805	31
-92	24	173	679	31
-138	876	128	413	31
-177	572	54	379	31
-224	-503	-44	366	31
-90	-576	-107	314	31
80	-269	-74	165	31
125	-505	-71	181	31
65	106	-69	-131	31
117	112	-120	-415	31
119	-196	-90	-557	31
-40	580	24	-629	31
-42	472	119	-369	31
-42	-263	112	47	31
-93	-557	57	283	31
-40	-429	37	185	31
12	-260	-139	261	31
-29	26	-355	354	31
26	370	-434	-345	31
-29	147	-111	-1229	31
-141	-2	552	-1264	31
-9	-184	704	-536	31
82	-112	429	467	31
53	123	158	733	31
-57	310	-90	247	31
-117	440	-141	161	31
-93	-27	-201	224	31
105	-21	-125	-541	31
240	-31	21	-761	31
50	-273	6	-178	31
-62	-72	9	599	31
-62	44	-64	964	31
10	135	-119	293	31
76	132	-153	-702	31
-106	432	-91	-1567	31
-300	1060	10	-544	31
-210	746	161	90	31
73	176	307	-84	31
132	-168	102	446	31
113	-772	-158	524	31
-1	-197	-368	672	31
-297	-13	-315	37	31
-476	87	48	-294	31
-704	622	130	13	31
-341	-1330	49	-153	31
239	-1789	-25	-186	31
739	-870	-233	-148	31
1416	-652	-220	-380	31
1014	593	-14	-446	31
228	307	160	-254	31
42	-249	253	200	31
46	-23	-51	628	31
98	-61	-309	229	31
-115	191	-176	433	31
-235	62	24	595	31
-114	249	166	164	31
-86	249	211	-54	31
-85	265	214	-11	31
-16	440	148	299	31
-36	152	-46	234	31
-139	8	-157	629	31
-152	-12	-146	686	31
-126	156	-36	-106	31
-47	292	155	-594	31
-108	732	289	-648	31
-214	652	304	-555	31
-243	-335	140	-407	31
-255	-330	24	-72	31
-244	341	30	-33	31
-347	376	-21	-465	31
-302	17	-135	-562	31
167	-439	-162	8	31
513	-1070	-34	272	31
249	-545	21	473	31
211	93	55	396	31
217	-280	-30	354	31
-104	22	-178	-193	31
-72	-33	-86	-598	31
-82	482	62	73	31
-211	1081	226	383	31
-123	499	280	747	31
123	478	146	679	31
74	-11	-69	285	31
-95	-1044	-391	-355	31
-37	-973	-522	-1093	31
23	-118	-221	-1608	31
223	-161	-47	-503	31
150	-97	-178	676	31
-14	7	-26	313	31
-176	-138	196	636	31
-332	386	207	366	31
-185	-7	138	-27	31
-12	-365	82	-312	31
356	-177	53	-315	31
471	137	-12	62	31
219	472	74	383	31
-13	304	138	694	31
-62	284	-52	206	31
1	62	-266	358	31
27	93	-282	419	31
27	651	-136	171	31
-52	254	52	-267	31
-22	-840	175	-470	31
-106	-879	168	158	31
-249	-399	-7	340	31
-289	-216	-84	332	31
-297	-65	30	135	31
-215	170	-22	-383	31
198	843	-37	-221	31
560	894	-27	153	31
113	62	-132	-801	31
-163	-355	-138	-709	31
-53	-458	-115	-155	31
31	-727	11	-55	31
282	-500	203	117	31
180	77	398	-945	31
-13	87	458	-1012	31
-84	105	162	-46	31
-99	188	29	381	31
-47	155	132	367	31
92	140	24	549	31
97	64	24	241	31
-77	9	-59	287	31
-77	-179	-346	264	31
-185	201	-348	72	31
-172	578	-231	259	31
-171	568	-131	36	31
-270	766	38	302	31
-179	318	184	-52	31
-93	-474	186	-262	31
-3	-715	146	-247	31
193	-609	90	23	31
579	-450	-108	377	31
426	-204	-239	97	31
74	329	-155	303	31
140	879	-120	227	31
41	256	-140	247	31
19	-739	-57	-1	31
18	-823	-40	-454	31
20	-667	22	-372	31
41	-286	154	-238	31
-75	12	175	41	31
-104	143	144	375	31
-128	480	85	372	31
-129	917	55	51	31
-130	768	-21	-100	31
-73	-391	-187	-799	31
-35	-382	-40	-1078	31
-8	375	303	-128	31
27	-176	172	424	31
-74	-525	-10	120	31
-45	-467	24	-28	31
18	-334	-58	352	31
39	-29	-103	206	31
46	-47	-118	134	31
11	109	-95	350	31
-10	108	-66	256	31
-39	139	55	421	31
-49	293	13	199	31
-82	573	-102	163	31
-140	1084	-60	253	31
-165	346	-80	-415	31
-103	-748	33	-504	31
41	-449	92	-806	31
199	-364	-10	-809	31
129	-398	-190	112	31
-34	193	-252	-83	31
26	214	-104	-108	31
61	251	64	-252	31
21	-54	307	-208	31
18	64	301	565	31
68	772	93	569	31
80	271	4	759	31
-17	-330	-147	567	31
-103	-494	-183	27	31
-74	-186	113	-463	31
19	-52	381	-640	31
-4	-351	425	41	31
-16	-179	259	506	31
-43	-79	-41	738	31
-80	-27	-219	494	31
-57	-55	-319	161	31
-80	-4	-300	-3	31
-68	530	-140	-1105	31
-4	1164	-92	-1584	31
37	674	-92	-335	31
33	-939	-29	146	31
176	-1249	30	69	31
199	-611	194	37	31
141	-365	269	-188	31
114	80	110	65	31
38	217	11	93	31
67	178	-170	177	31
-54	502	-201	168	31
-118	1366	-55	230	31
-155	1704	-43	436	31
-215	-367	-113	46	31
-206	-1661	-236	-320	31
-126	-879	-93	-26	31
75	-674	81	335	31
106	-225	193	-309	31
120	359	365	-423	31
156	345	279	40	31
138	-95	100	211	31
108	-436	-62	326	31
73	-117	-251	83	31
-30	-36	-330	320	31
-126	176	-125	543	31
-143	682	67	603	31
-214	705	-97	325	31
-248	84	-249	-545	31
-140	-29	-314	-1287	31
90	707	-75	-958	31
79	254	317	368	31
-50	-773	431	1139	31
-52	-719	349	1081	31
178	-327	148	457	31
438	-64	72	-54	31
140	229	-35	-1499	31
12	-188	1	-1319	31
-13	-504	105	204	31
-100	-107	48	-395	31
95	-303	20	-130	31
107	43	-149	112	31
206	232	-271	199	31
79	-69	-227	224	31
-82	183	-118	-283	31
44	81	2	203	31
-56	142	-38	430	31
-59	95	-165	102	31
-76	59	-170	-118	31
-139	261	-13	507	31
-131	340	133	1257	31
-152	350	189	610	31
-182	484	178	-1079	31
-261	1274	206	-1355	31
-172	773	93	166	31
-14	-575	-110	147	31
84	-492	6	-429	31
179	-875	88	-203	31
197	-1481	85	-228	31
103	-649	76	-117	31
177	-317	-25	55	31
168	-231	-239	371	31
-77	174	-295	69	31
-14	-7	-106	-16	31
27	168	45	171	31
-43	139	184	228	31
-31	200	132	871	31
-88	628	-14	868	31
-103	551	-134	367	31
-163	133	-87	194	31
-165	-328	128	-181	31
-24	-1	397	-1122	31
-5	531	442	-1466	31
-207	1001	227	-526	31
-296	713	130	-178	31
-196	-946	-199	-385	31
-75	-1577	-520	91	31
248	-676	-344	262	31
456	-102	-272	442	31
239	-114	-252	664	31
259	11	28	295	31
430	188	109	-122	31
69	245	135	-497	31
-11	68	98	-248	31
-3	-176	84	165	31
-143	63	179	247	31
-17	854	169	199	31
-141	990	115	173	31
-144	-57	-153	110	31
-163	-176	-242	14	31
-324	-101	-192	97	31
-465	-783	-177	-67	31
-426	-100	-41	-69	31
-35	182	-72	72	31
285	-41	-194	50	31
544	244	-147	-233	31
620	-468	-36	-115	31
408	-270	-27	339	31
70	-201	-117	7	31
85	-628	-127	-325	31
62	-244	79	-82	31
-21	-227	209	403	31
133	161	110	918	31
87	267	15	1141	31
-52	337	187	599	31
-196	683	501	-750	31
-192	427	477	-1722	31
-218	-147	229	-1194	31
-177	-690	44	-401	31
-230	-399	-57	-110	31
-328	126	-59	360	31
-326	296	-123	454	31
-289	312	-166	516	31
68	174	-150	176	31
175	-35	-48	-421	31
400	-75	114	-386	31
512	148	196	-152	31
182	370	105	112	31
96	704	-81	-50	31
-72	399	-173	254	31
-112	-412	-184	396	31
-107	24	-85	63	31
-111	1190	-63	-113	31
-102	1256	-231	-346	31
-179	-239	-358	-223	31
-1	-1834	-166	72	31
147	-1637	200	215	31
102	-428	401	137	31
-143	-226	232	151	31
-290	-412	11	128	31
-196	-138	-104	373	31
-46	-90	-278	-105	31
123	68	-49	-618	31
151	231	135	-199	31
37	129	1	-82	31
-70	74	-18	163	31
-57	126	-110	188	31
58	381	-32	41	31
107	313	60	-166	31
72	-27	49	-216	31
37	-193	78	10	31
-89	14	52	136	31
-255	214	3	350	31
-171	156	-72	227	31
228	226	57	404	31
520	19	231	560	31
307	-148	302	-186	31
143	29	155	-560	31
196	262	-150	-168	31
6	428	-204	-52	31
-3	-156	-183	66	31
-137	-631	-116	-101	31
-229	-396	62	-79	31
-128	-160	16	516	31
-236	140	-54	-146	31
-70	262	-65	-206	31
-112	272	-71	60	31
-51	174	17	-240	31
277	37	24	98	31
92	326	64	130	31
-47	80	67	307	31
-102	-409	24	248	31
-85	-271	-43	41	31
107	-134	-85	-182	31
20	48	-68	-147	31
-19	-89	-93	94	31
-146	-202	-64	-249	31
-453	-59	-136	-122	31
-513	-97	-105	-15	31
-348	16	-20	-145	31
77	59	38	-234	31
701	210	164	-334	31
777	184	104	-284	31
153	1	45	-244	31
34	12	73	209	31
-29	88	138	218	31
-87	619	144	-238	31
307	1395	48	-112	31
197	943	-98	303	31
23	-808	-220	614	31
-79	-1019	-121	557	31
-92	-348	-16	-240	31
-143	-613	22	-825	31
-428	-302	161	-438	31
-548	-196	213	-172	31
-449	-328	104	-32	31
-90	100	-1	-50	31
89	72	-43	98	31
376	222	-73	395	31
719	206	-60	287	31
420	-251	9	304	31
171	-470	161	278	31
151	-408	339	296	31
198	-70	220	221	31
39	14	-98	19	31
-254	34	-350	-242	31
-153	112	-287	-334	31
-92	108	-106	176	31
-128	102	-97	229	31
-155	312	70	168	31
-231	772	92	32	31
-329	600	6	-341	31
-406	-183	-105	25	31
-286	-698	-172	226	31
153	-573	-10	115	31
489	-222	6	-240	31
241	-118	47	-531	31
45	-4	55	-191	31
41	162	-27	-38	31
-130	221	-50	17	31
-224	202	-62	62	31
-243	123	-61	-142	31
-168	76	-16	-183	31
19	87	-2	42	31
249	42	16	228	31
134	213	72	236	31
-166	502	20	238	31
-309	327	1	246	31
-457	-24	16	364	31
-215	-211	83	413	31
319	-420	2	-65	31
535	-359	-171	-728	31
193	4	-82	-359	31
-34	-38	85	-145	31
68	-200	236	-627	31
11	-103	77	-485	31
48	128	-27	-109	31
67	409	67	367	31
151	54	12	64	31
334	-522	171	-133	31
185	-389	193	131	31
-60	-74	140	-67	31
-323	122	108	108	31
-495	628	-133	206	31
-410	1173	-224	28	31
-9	880	-185	169	31
519	-353	-34	160	31
477	-1183	36	92	31
64	-981	-23	112	31
89	-510	-95	96	31
357	-122	-141	36	31
193	16	-42	-64	31
-99	53	-26	186	31
-105	109	-5	130	31
-137	-42	4	-100	31
-137	-112	1	-108	31
-33	-16	-31	-47	31
-97	200	-59	68	31
-175	457	-42	236	31
-127	304	-103	402	31
-286	-18	-12	633	31
-194	85	-12	1209	31
299	571	-17	1023	31
57	1253	-62	151	31
-194	924	-30	-1365	31
36	-912	243	-2434	31
-62	-1490	186	-1585	31
120	-648	117	-393	31
239	-322	87	202	31
-6	13	-42	163	31
-102	-32	36	-401	31
-332	-97	175	-335	31
-509	177	116	53	31
-340	0	-59	478	31
-33	319	-27	653	31
378	1019	79	595	31
707	960	-9	199	31
337	-482	-125	-33	31
-87	-1358	-145	-64	31
117	-534	-107	213	31
164	-167	-107	455	31
-28	376	-69	512	31
-129	683	17	482	31
-145	-123	-54	-78	31
-84	-204	-122	-60	31
-55	-196	-182	264	31
-158	-268	-213	297	31
-213	-82	9	-22	31
-294	-129	306	-580	31
-553	34	295	-1049	31
-522	89	129	-619	31
-290	32	26	300	31
-44	14	-55	720	31
603	63	-57	637	31
1288	255	-117	-4	31
802	145	-166	-584	31
342	-219	-112	-1765	31
264	-254	158	-1419	31
-260	-23	264	820	31
-125	15	113	1022	31
-37	262	50	577	31
209	291	-7	281	31
134	-169	36	-455	31
-250	-209	83	-189	31
61	12	196	203	31
16	191	252	204	31
-22	170	111	271	31
-148	43	-45	215	31
-191	200	-234	-6	31
-211	604	-380	44	31
-300	661	-326	214	31
-92	9	-144	195	31
-29	-695	-37	310	31
12	-912	-3	241	31
-1	-479	-120	257	31
0	-156	-191	716	31
-103	-43	-8	630	31
-158	182	137	-357	31
-120	356	176	-1020	31
-103	754	249	-1694	31
14	171	309	-1381	31
70	-588	161	501	31
152	-261	-237	991	31
105	-97	-413	686	31
46	-7	-329	272	31
36	130	-198	-413	31
-103	312	162	-786	31
-193	637	414	-183	31
-241	308	384	676	31
-208	-343	150	-272	31
-194	-296	100	-1017	31
-434	797	224	-115	31
-373	1773	187	431	31
212	1029	-19	27	31
433	-655	-454	229	31
287	-1773	-442	474	31
427	-1952	-176	390	31
561	-1454	-174	372	31
396	-587	-103	52	31
157	-20	107	-502	31
-14	-49	246	-1481	31
-239	64	297	-513	31
-261	221	172	537	31
-72	120	24	499	31
-274	183	54	1049	31
-568	551	-294	726	31
-588	266	-573	1082	31
-476	-36	-421	391	31
413	143	-93	-1355	31
1556	-226	397	-1267	31
953	-156	353	-1527	31
60	102	313	-1548	31
177	34	303	64	31
-63	186	113	719	31
-91	123	212	992	31
-97	188	65	1174	31
-245	232	-155	610	31
-177	169	-368	342	31
-332	410	-532	70	31
-198	514	-491	612	31
22	19	-77	-631	31
72	-469	178	-1653	31
20	-209	76	463	31
-58	74	191	282	31
-44	104	77	36	31
-82	171	41	183	31
-104	453	312	-1459	31
-106	471	410	-1559	31
-105	-205	138	-411	31
-122	-413	-12	701	31
-189	-65	127	550	31
-270	-31	358	591	31
-319	111	562	738	31
-216	20	263	539	31
-14	-589	-423	1262	31
216	-538	-904	1611	31
487	-187	-962	484	31
549	-68	-596	-1830	31
343	20	-63	-2263	31
142	118	128	-1573	31
-9	671	268	-698	31
-65	1329	241	702	31
-144	826	129	999	31
-228	-249	-167	571	31
-238	-151	-290	639	31
-305	-180	9	1128	31
-252	-1140	-11	-103	31
-146	-472	65	-505	31
-120	927	74	17	31
6	338	138	-382	31
259	-537	201	-312	31
208	-598	-1	-319	31
-57	-473	44	-851	31
34	-707	189	-239	31
193	-816	100	975	31
333	-345	107	258	31
155	-327	343	507	31
-250	-163	166	-103	31
-93	176	-50	-351	31
77	237	5	996	31
-79	270	81	176	31
141	282	40	-353	31
416	512	-100	-64	31
93	1034	-244	97	31
-26	1826	-182	-814	31
-128	1304	95	-595	31
-216	-646	-9	417	31
60	-1567	-83	362	31
138	-1221	-332	597	31
367	-910	-502	309	31
445	-304	-190	-64	31
200	137	-164	-284	31
-9	107	-119	54	31
-133	477	-130	-373	31
-239	388	177	-1252	31
-342	12	500	-254	31
-280	-103	246	730	31
-185	365	451	1742	31
-60	890	315	1344	31
-73	198	-153	640	31
-127	-549	-418	1237	31
-36	-479	-382	-459	31
155	-1	150	-1596	31
105	777	315	-2181	31
-225	1279	408	-1753	31
-211	-92	16	-446	31
-127	-1479	-345	-1080	31
7	-677	-29	-838	31
217	-418	-39	1044	31
86	-295	-91	2222	31
-21	195	-97	1259	31
-65	181	-136	607	31
-50	882	37	-240	31
-14	417	132	-1038	31
-108	-716	101	-290	31
-96	-638	216	-108	31
-46	-178	212	567	31
14	303	69	126	31
-74	311	-43	319	31
-94	57	-105	337	31
200	187	12	-482	31
51	301	122	-246	31
-160	157	73	52	31
-7	-20	-187	542	31
1	-324	-658	1284	31
224	54	-867	651	31
463	154	-300	-1012	31
176	-332	343	-800	31
-108	-227	531	-539	31
-155	-112	678	-201	31
-266	532	625	166	31
-347	892	373	-592	31
-302	-216	243	-266	31
-158	-1026	37	34	31
197	-267	-340	801	31
423	917	-575	1030	31
33	1651	-535	565	31
-180	1357	-360	213	31
102	-512	-160	285	31
236	-1712	-136	1113	31
317	-1217	201	-1464	31
214	-516	492	-2206	31
97	-284	202	-382	31
183	-670	55	-64	31
254	-713	-157	330	31
162	-196	-191	275	31
32	-6	-28	287	31
-7	314	-184	406	31
-26	391	-297	80	31
-16	-43	-256	139	31
-117	122	-211	156	31
-158	461	-70	534	31
-297	437	159	217	31
-622	112	323	-246	31
-913	39	277	-47	31
-813	261	105	-146	31
-504	206	69	366	31
-15	236	24	564	31
1216	309	23	410	31
1399	81	4	-314	31
492	-332	221	-931	31
274	-346	336	309	31
107	-226	70	625	31
49	-64	89	216	31
32	182	140	130	31
-81	173	70	-1015	31
-75	198	0	-1411	31
-191	-116	-73	-382	31
-138	-144	-317	-472	31
-205	136	-189	-369	31
-265	485	176	126	31
-261	838	31	-315	31
-219	19	-189	146	31
-17	-892	-223	75	31
65	-569	-198	-1	31
151	175	13	239	31
94	771	232	234	31
-98	959	-30	1077	31
-196	122	-241	1730	31
-169	-680	-292	1272	31
-77	-545	-113	-334	31
-57	-431	457	-1725	31
55	-857	535	-2300	31
178	-530	58	-536	31
87	166	-52	1806	31
-57	463	-55	1525	31
-379	1773	-385	1268	31
-552	1526	-375	979	31
-319	-535	-322	-310	31
-4	-1207	-237	-113	31
376	-917	197	-512	31
423	-522	640	-658	31
-27	-193	527	568	31
59	-35	177	317	31
503	-579	49	421	31
324	-597	-337	239	31
308	-56	-600	-224	31
294	-173	-484	-398	31
45	165	-105	-624	31
-76	262	253	37	31
-331	279	120	-901	31
-377	590	67	-2179	31
-231	377	376	228	31
-62	343	347	1410	31
-11	-14	177	428	31
198	-439	159	540	31
360	-381	173	137	31
156	-190	426	413	31
90	93	572	125	31
-80	79	58	90	31
-75	160	-558	401	31
-41	432	-855	-55	31
-270	879	-1074	-905	31
-368	808	-512	-1732	31
-547	-17	163	-1217	31
-633	-280	87	-233	31
-352	-614	93	859	31
132	-560	129	628	31
355	455	97	286	31
643	258	324	116	31
624	-540	284	137	31
241	-358	-118	811	31
379	456	-282	539	31
-120	1109	-155	63	31
-358	881	65	-371	31
-103	2	62	-1427	31
-241	-949	34	-2061	31
-8	-834	310	-346	31
99	-85	495	64	31
237	-69	306	-723	31
-86	-661	-56	88	31
-390	-676	-298	421	31
-143	-199	-414	622	31
398	-159	-80	279	31
792	118	373	-530	31
-87	-103	479	-446	31
-165	-382	292	412	31
141	90	-199	84	31
47	-107	-508	-809	31
80	-239	-391	-924	31
-257	-82	-287	-397	31
-107	181	-195	324	31
115	494	-25	564	31
269	312	-70	846	31
241	280	-123	849	31
67	384	5	772	31
-90	800	77	252	31
-337	1131	-62	-247	31
-486	427	6	-944	31
-463	-650	434	-976	31
-105	-892	471	-114	31
157	-249	392	-468	31
99	-14	191	-491	31
-157	-176	-205	-383	31
-67	-192	-313	-70	31
-314	-289	-206	516	31
-576	35	128	272	31
-30	155	280	371	31
249	238	312	812	31
516	510	128	578	31
153	-263	-127	228	31
-915	-333	-254	603	31
-1085	936	-411	1069	31
-659	1759	-229	595	31
23	1363	-36	-411	31
1481	-211	-159	21	31
1877	-1119	-271	128	31
513	-1349	-123	-110	31
385	-1755	112	-732	31
432	-824	418	-2224	31
-27	-521	410	-692	31
-57	-562	-56	803	31
-426	350	-158	810	31
-332	232	-93	680	31
-362	424	37	-495	31
-107	346	147	71	31
317	59	-11	450	31
89	572	-4	494	31
-197	483	-31	483	31
-275	19	-48	234	31
-181	-143	-84	186	31
-37	-279	29	-125	31
170	-470	130	631	31
-84	-168	20	1652	31
-272	96	-141	1366	31
-357	81	-380	309	31
-376	126	-250	-1445	31
-168	76	-141	-2520	31
5	471	-215	-566	31
365	1165	-37	22	31
193	691	89	-200	31
64	-680	469	499	31
281	-993	980	-825	31
163	-21	874	-1264	31
-10	388	269	-448	31
-156	-344	-455	388	31
22	-455	-870	1430	31
15	247	-874	1899	31
-161	375	-299	900	31
-70	232	215	-732	31
9	35	290	-1825	31
43	-138	374	-2156	31
-171	461	271	-754	31
54	325	146	514	31
183	32	5	688	31
-57	365	110	1236	31
97	-821	-46	864	31
-13	-1509	-183	143	31
-77	-742	280	442	31
-279	-677	122	648	31
-771	-219	-128	843	31
-592	971	-335	673	31
206	1882	-445	252	31
449	1424	-163	-471	31
-242	-228	6	-626	31
-127	-656	228	-654	31
630	-839	141	-899	31
1091	-1089	52	-332	31
805	-327	19	-171	31
298	-90	-21	-216	31
292	-24	15	-439	31
-85	205	-50	25	31
-102	120	-97	362	31
-165	519	-211	-21	31
-356	605	36	415	31
-465	179	242	752	31
-660	-165	-95	661	31
-549	-414	-271	507	31
-355	-383	-306	143	31
222	-158	-328	-1694	31
532	151	54	-2344	31
572	84	397	-1815	31
297	44	516	-665	31
-29	146	173	779	31
26	117	-305	718	31
-100	215	-348	1317	31
1	165	-429	1642	31
55	83	-169	1133	31
-45	50	148	-671	31
-28	39	289	-1636	31
-22	47	165	355	31
-143	79	-56	-297	31
-289	313	149	-1373	31
-251	355	294	-603	31
-243	26	406	-278	31
-212	138	85	-215	31
-330	477	-37	-628	31
-492	-172	110	329	31
-309	-644	34	482	31
169	-320	36	334	31
564	137	-47	464	31
469	1513	112	-54	31
147	1889	160	350	31
-215	-34	117	209	31
-305	-1992	96	209	31
117	-1929	49	226	31
641	-935	-32	418	31
652	-901	-216	1102	31
-191	-840	-316	954	31
-502	-554	-281	246	31
-338	-381	-172	-1111	31
-194	211	-197	-1445	31
375	682	-230	-168	31
488	1043	-248	-236	31
355	423	-15	-756	31
302	-90	628	105	31
283	179	897	987	31
-4	-19	390	339	31
-348	-467	-173	-794	31
-229	-378	-643	-789	31
-17	71	-794	-84	31
54	-52	-275	568	31
-90	391	-10	-123	31
-103	1100	-133	299	31
-182	962	-317	343	31
-138	-84	-132	-1016	31
-145	-570	311	-782	31
-147	189	648	-84	31
-60	94	676	1308	31
-202	53	189	1393	31
9	70	-168	340	31
328	-170	-417	-469	31
612	593	-370	-688	31
344	538	-69	219	31
-149	-698	197	64	31
-158	-781	132	384	31
-89	67	-295	890	31
-62	379	-264	413	31
-317	570	-83	-368	31
-357	465	91	-1330	31
-185	-349	140	-297	31
-59	-931	-53	-516	31
49	-472	15	-1365	31
-123	324	88	16	31
-422	237	139	17	31
-659	-317	280	325	31
-533	-477	414	235	31
256	-120	355	-97	31
1159	-67	45	319	31
1022	-212	-145	297	31
547	282	-207	956	31
114	715	-57	1124	31
-268	633	188	1035	31
-26	-69	65	761	31
16	-633	-237	95	31
17	-160	-411	-406	31
40	214	-457	185	31
-59	7	-350	486	31
-141	-179	34	-762	31
-72	-276	322	-1838	31
145	178	252	-810	31
117	509	158	708	31
25	249	51	634	31
-63	386	101	529	31
-71	795	249	-127	31
-83	899	139	-2	31
-193	-173	-313	49	31
-280	-1387	-561	-979	31
-156	-1339	-273	-1739	31
77	-702	-52	-716	31
121	-244	72	876	31
-45	-136	98	35	31
-82	188	56	-595	31
-103	867	259	15	31
-420	1965	311	539	31
-698	1578	229	90	31
-942	-709	133	338	31
-761	-2046	27	532	31
-178	-1496	12	365	31
660	-96	-76	604	31
1332	-31	-120	231	31
1048	-501	-123	226	31
750	-220	-121	-53	31
550	-32	-176	-78	31
188	155	-157	557	31
-83	168	-150	496	31
-175	186	30	-378	31
-130	256	398	-520	31
-307	306	411	-411	31
-353	540	365	-150	31
-289	565	159	469	31
-56	382	-166	-304	31
234	-145	-290	-1001	31
72	-642	-304	-774	31
-68	-417	-404	203	31
-132	65	-299	-165	31
-164	174	208	-732	31
168	259	291	794	31
157	609	-31	502	31
-44	788	-173	85	31
-122	536	-5	320	31
-375	-103	127	-238	31
-402	-291	91	-279	31
-357	-313	155	-54	31
-175	-616	98	691	31
203	-506	30	756	31
269	-480	-163	2	31
368	-264	-264	-190	31
478	-72	-291	-73	31
160	6	-289	85	31
146	611	-16	84	31
42	798	75	-69	31
-239	660	42	-19	31
-29	18	15	110	31
-14	-718	44	130	31
52	-289	80	-14	31
31	728	190	-176	31
-73	413	322	329	31
-55	-725	303	168	31
-198	-74	133	-523	31
-184	977	-204	67	31
-152	254	-458	-816	31
-127	-1230	-268	-1480	31
-9	-1388	113	664	31
135	-720	159	1485	31
60	-100	52	436	31
61	475	161	-769	31
200	113	399	-1412	31
-16	444	239	-161	31
-111	296	-128	151	31
-116	-524	-128	-246	31
-180	11	-167	281	31
-34	151	-226	198	31
-22	324	-193	628	31
-216	338	-149	584	31
-218	448	-1	499	31
86	578	6	724	31
320	-403	-91	1015	31
355	-600	-110	906	31
372	-310	0	-676	31
326	-242	139	-1967	31
31	-58	221	-1607	31
-173	56	340	-807	31
-178	218	431	-421	31
-163	490	219	553	31
-145	398	36	661	31
-216	-171	-95	994	31
-216	-87	-325	897	31
-34	209	-431	246	31
223	-105	-424	372	31
87	-353	-227	203	31
-8	-190	1	51	31
149	79	40	-425	31
-54	145	-103	95	31
-231	618	-50	67	31
-256	1509	194	-706	31
-209	1066	219	-372	31
-165	-1188	199	-961	31
-53	-2033	423	-1383	31
215	-734	616	-254	31
133	-37	152	-107	31
122	264	-433	-176	31
312	72	-626	-154	31
-17	-97	-643	413	31
-267	608	-313	1740	31
67	176	-174	1348	31
262	-140	-15	319	31
-154	227	310	-729	31
-66	368	396	-152	31
221	725	411	744	31
99	-373	171	-76	31
438	-1530	14	-275	31
433	-607	-31	-264	31
221	-470	26	-194	31
125	-262	65	-112	31
-57	271	-111	132	31
-155	-122	-97	595	31
-139	174	61	109	31
-64	117	134	-781	31
-142	246	191	-833	31
-225	380	269	-174	31
-256	82	-161	180	31
-38	237	-417	542	31
37	187	-201	527	31
133	250	-186	-79	31
60	-47	-147	-476	31
-194	-320	-105	-11	31
-74	142	-70	556	31
-155	337	-67	-44	31
-57	148	108	-133	31
19	108	319	181	31
79	22	477	53	31
266	-32	432	-171	31
-14	31	-84	-14	31
-219	-5	-409	-224	31
-135	371	-416	-954	31
-125	1234	-154	-89	31
-222	1447	137	739	31
-332	215	126	467	31
-350	-915	-103	-26	31
-190	-1458	-126	-768	31
31	-1521	80	-748	31
305	-372	34	276	31
482	154	36	455	31
244	-180	195	69	31
110	-318	252	242	31
102	-290	118	286	31
-32	-42	-13	115	31
-99	175	-63	-105	31
-257	340	-208	120	31
-98	-149	-196	72	31
69	-272	-29	-40	31
-168	205	14	278	31
-141	219	27	194	31
-133	434	47	-104	31
-97	513	-59	70	31
620	221	-166	866	31
518	-457	-213	1032	31
78	-656	-21	333	31
617	-140	186	-20	31
310	63	178	-808	31
-92	548	247	-2291	31
-31	1218	187	-1470	31
-327	903	-115	89	31
-344	-780	-330	-54	31
-287	-1073	-203	131	31
-64	-148	34	1101	31
140	-141	39	1747	31
50	394	-32	-34	31
-46	67	42	-1020	31
-155	-596	94	-1136	31
-125	-64	95	-257	31
70	150	130	799	31
69	2	238	352	31
-133	-285	327	681	31
-237	370	281	38	31
-353	1629	52	-457	31
-501	1079	-231	-211	31
-348	-1020	-245	137	31
321	-1616	-257	12	31
735	-879	-313	-166	31
558	-431	-250	-47	31
552	325	-232	-142	31
191	669	-143	92	31
-188	551	-111	60	31
-272	-41	1	146	31
-487	-834	198	27	31
-305	-502	216	-122	31
21	155	175	-100	31
458	57	12	270	31
424	65	-79	612	31
186	212	-31	513	31
144	9	37	85	31
-113	149	133	-809	31
-58	66	186	-527	31
-100	-70	153	-14	31
-116	65	32	-484	31
-70	174	-150	-131	31
-248	322	-140	222	31
-232	144	117	94	31
-161	80	181	155	31
-99	354	-7	-535	31
-19	557	-173	-1308	31
-37	67	-68	-881	31
-39	-383	-39	168	31
202	-55	-113	774	31
246	163	151	1201	31
-85	416	66	862	31
-272	82	-165	340	31
-297	-772	-173	367	31
-378	-304	-213	266	31
-42	541	64	61	31
524	92	238	-20	31
465	-679	98	-113	31
92	-760	-84	256	31
7	-464	-224	666	31
38	51	32	-603	31
-146	977	269	-962	31
-327	1415	158	-603	31
-355	95	27	-678	31
-224	-1005	-119	-77	31
47	-757	4	59	31
335	-852	80	190	31
165	-241	32	121	31
-214	422	31	158	31
-62	125	-105	171	31
74	340	-128	-251	31
168	188	-70	-90	31
268	-169	41	300	31
166	-237	65	697	31
-108	447	-21	379	31
163	1034	-28	-330	31
524	-17	65	-289	31
65	-937	114	60	31
-148	-682	14	-150	31
-77	62	82	-164	31
-99	143	156	324	31
-271	-72	-19	181	31
-176	-334	-121	50	31
17	-288	-120	225	31
215	189	-12	-531	31
266	185	147	-1009	31
34	242	82	-1009	31
93	140	-80	-524	31
-127	-60	-72	713	31
-62	27	-22	603	31
-37	386	-29	555	31
-140	568	6	517	31
34	575	9	293	31
-98	626	-121	352	31
-214	166	-249	537	31
-429	-69	-21	91	31
-438	-370	261	-936	31
-400	-335	129	-343	31
-264	203	-108	-57	31
471	351	-186	-135	31
679	1037	-172	-206	31
158	504	-155	-213	31
84	-1741	-73	-239	31
60	-1988	165	-70	31
83	-698	176	689	31
302	-255	73	271	31
-65	171	113	-33	31
-133	683	-49	-124	31
196	537	-214	21	31
67	596	-269	223	31
-231	436	-120	-219	31
-322	400	90	-304	31
-500	152	171	-175	31
-481	-900	208	335	31
-391	-1052	29	659	31
-342	-194	-4	516	31
330	29	42	46	31
505	361	-14	-628	31
830	37	34	-699	31
1334	-685	42	-102	31
263	55	52	165	31
-92	174	102	-78	31
132	-68	126	95	31
-184	44	75	283	31
185	-62	0	190	31
-9	74	-91	-178	31
-218	90	-120	-101	31
-133	355	-93	-42	31
-234	442	-221	-186	31
-58	108	-34	60	31
-69	-85	318	-195	31
-128	-150	324	-31	31
-158	-29	138	656	31
-138	-46	-131	788	31
-116	-66	-220	390	31
-40	74	-302	-409	31
-5	208	-112	-1562	31
-206	200	123	-1080	31
-316	-48	54	655	31
-171	-79	208	1166	31
-15	326	201	401	31
-5	652	148	-769	31
-122	442	79	-253	31
-291	-178	-115	322	31
-148	-740	-231	105	31
166	-233	-252	292	31
389	695	-92	-231	31
370	372	-57	5	31
144	-773	-78	361	31
-54	-454	-42	-190	31
-190	765	-21	-478	31
-171	-281	22	-396	31
-46	-1347	93	200	31
232	-548	81	573	31
374	456	42	431	31
-31	604	124	272	31
-270	-136	208	71	31
36	-249	106	-368	31
161	-280	-112	-792	31
8	-473	-310	-785	31
-82	-389	-340	-252	31
-115	-187	-137	33	31
-294	-21	-67	140	31
-138	-171	57	665	31
148	-85	201	588	31
307	40	200	-108	31
353	145	128	-526	31
-137	184	3	-206	31
-192	102	-86	553	31
-167	146	-204	981	31
-75	302	-231	484	31
379	454	-97	-330	31
272	222	78	-264	31
205	-60	163	154	31
203	-71	198	301	31
124	-17	39	439	31
24	22	-70	49	31
-116	62	40	-1148	31
-121	209	144	-1674	31
-127	306	100	-663	31
-43	148	-7	103	31
-103	285	28	-82	31
-152	378	42	333	31
-127	-418	84	436	31
-54	-568	71	466	31
116	97	29	591	31
-168	338	-70	407	31
-567	209	-132	320	31
-393	-139	-24	-180	31
256	62	105	-118	31
431	295	63	51	31
101	-117	-135	-143	31
91	-224	-201	519	31
20	40	-135	286	31
9	164	83	-931	31
-15	32	76	-489	31
-102	51	37	-494	31
68	429	-19	-264	31
100	611	-128	535	31
72	105	-19	506	31
34	-608	-32	747	31
6	-236	-56	-248	31
16	-60	-76	-1250	31
-32	-235	121	-973	31
-155	725	336	-20	31
-153	109	208	295	31
-114	-1171	38	621	31
-273	-1124	-181	694	31
-147	-1155	-175	-206	31
-1	-112	-28	-190	31
-128	489	24	-207	31
-297	1019	109	466	31
-378	1199	130	789	31
-135	-379	54	517	31
605	-793	-138	408	31
1116	-1191	-240	-160	31
486	-739	-249	-490	31
146	45	17	-1262	31
130	-156	281	-1078	31
-113	324	67	213	31
-92	172	30	941	31
-4	232	-62	623	31
29	391	-261	-377	31
-312	705	-205	-248	31
-188	1132	-27	75	31
-286	128	108	-24	31
-421	-759	16	261	31
0	-687	71	31	31
-61	-153	107	41	31
350	276	178	240	31
693	421	224	264	31
185	244	23	199	31
-89	63	-133	113	31
-107	-84	-122	405	31
-232	-285	-148	267	31
-165	57	-309	-41	31
64	133	-141	-176	31
140	93	-49	-522	31
189	226	40	-446	31
155	144	123	-276	31
-189	507	62	-461	31
-261	876	64	284	31
-303	798	36	582	31
-436	1043	84	-142	31
-185	1124	102	-690	31
-32	-755	170	-848	31
298	-2079	88	-526	31
487	-1169	2	361	31
287	-1183	-64	499	31
168	-598	-68	12	31
11	199	-39	400	31
67	-576	-57	211	31
12	-294	-6	413	31
-115	-98	-29	473	31
-60	-11	79	-497	31
-164	240	107	-656	31
-190	61	4	448	31
-181	344	-219	1114	31
-107	328	-316	-234	31
8	274	-45	-905	31
11	137	208	-40	31
26	-5	432	-59	31
-279	209	265	114	31
-542	502	-6	248	31
-247	901	70	-312	31
2	576	-98	-237	31
53	-23	-243	-734	31
216	150	-132	-360	31
200	-382	166	295	31
161	-1358	386	359	31
317	-1140	167	257	31
29	-477	-41	-97	31
-266	194	-229	163	31
-97	441	-360	136	31
74	648	-223	146	31
517	887	-7	82	31
565	594	-24	-2	31
-126	136	-112	-25	31
-241	-828	-64	251	31
90	-862	-22	881	31
381	-192	93	1150	31
383	-380	-51	1001	31
-44	-193	-214	-232	31
-59	122	-156	-1276	31
-59	191	-47	-777	31
-131	817	149	-1419	31
-212	1137	188	-1103	31
-381	314	60	466	31
-291	-829	74	-458	31
-191	-869	204	-214	31
203	-314	19	324	31
200	159	0	517	31
-148	586	145	1062	31
-56	125	-14	617	31
-29	-675	-104	355	31
65	-654	-59	-638	31
342	-136	-25	-784	31
215	-31	22	-102	31
-57	147	-93	-224	31
-69	298	-195	-267	31
-197	349	-29	-603	31
-272	636	209	-34	31
-257	37	286	1135	31
-79	-409	-3	599	31
141	105	-21	41	31
29	521	21	-87	31
-155	757	-52	281	31
-353	26	-8	722	31
-244	-950	-112	552	31
11	-730	-54	545	31
406	-268	-24	324	31
491	-65	44	-631	31
161	-160	138	-1618	31
281	-183	71	-518	31
-37	45	-24	-82	31
-374	102	-104	-372	31
-373	60	-179	-56	31
-461	75	-187	-1067	31
-80	406	49	-754	31
425	486	193	629	31
354	17	246	993	31
-176	-228	186	398	31
-28	-214	15	104	31
309	76	-22	741	31
167	975	45	1222	31
86	1922	68	848	31
188	856	-139	-547	31
122	-1572	-290	-1697	31
-124	-1756	-233	-1330	31
70	-819	-59	1155	31
40	-846	-146	1775	31
-125	-237	-143	784	31
-53	1357	29	400	31
-245	2095	207	-953	31
-545	309	380	-1517	31
-722	-1854	287	-1513	31
-233	-1808	171	-447	31
366	-1046	-153	129	31
652	-322	-206	2	31
770	108	-62	398	31
376	216	-83	111	31
129	499	-70	372	31
-35	490	-62	271	31
-263	478	22	312	31
-314	207	60	368	31
-351	264	63	31	31
-207	690	11	-273	31
-123	146	-3	-554	31
104	-502	-34	-370	31
212	356	88	-142	31
-49	918	62	165	31
158	-399	-254	678	31
252	-933	-231	1045	31
-95	-672	-111	374	31
120	-393	-57	-273	31
246	11	-146	159	31
-10	13	-103	434	31
-2	70	8	-363	31
-55	55	187	-1255	31
-59	310	610	-311	31
-181	428	557	1231	31
-450	546	77	1493	31
-537	1175	-409	1306	31
-529	877	-520	-449	31
-160	-27	-209	-2333	31
445	88	-128	-1831	31
525	-92	-44	70	31
292	-841	70	766	31
375	-685	-34	326	31
142	-489	165	514	31
-11	-84	244	247	31
-11	174	65	126	31
-201	-211	-40	257	31
-130	81	-76	412	31
-117	442	198	280	31
74	363	393	-253	31
41	-82	264	-569	31
-184	-433	-1	257	31
-198	95	-327	1126	31
-449	832	-373	519	31
-435	619	-163	280	31
-103	-312	-140	-498	31
160	-707	-140	-323	31
330	-48	-17	-847	31
137	881	97	-2330	31
108	143	110	-1273	31
440	-1061	-47	321	31
521	-795	28	1375	31
199	-525	185	1287	31
-170	-153	138	-136	31
-186	59	186	-452	31
-169	-351	214	-72	31
-1	-149	122	-65	31
165	-22	-141	671	31
102	84	-306	563	31
-48	321	-200	-228	31
-219	-35	164	-701	31
-84	-169	406	-61	31
74	355	251	735	31
200	493	-7	95	31
6	317	-292	-277	31
-507	183	-353	-660	31
-646	-302	-380	673	31
-404	-83	-108	1740	31
328	375	127	1191	31
1003	838	-124	552	31
715	1051	-264	-2040	31
59	64	-132	-2048	31
-87	-540	183	-362	31
-131	-840	261	-1408	31
-191	-512	207	-212	31
-37	-225	117	1348	31
62	-580	-278	1281	31
29	92	-497	1555	31
4	27	-204	-11	31
-104	-318	572	-1899	31
-214	-173	1092	-1671	31
-116	-188	589	-746	31
-110	231	35	-628	31
-44	441	-171	-431	31
-27	484	-406	-71	31
-242	-7	-429	482	31
-257	-484	-300	307	31
-149	-250	-325	102	31
-62	132	-268	117	31
89	346	-77	625	31
245	181	168	1229	31
314	115	555	-325	31
52	386	613	-1633	31
-223	1001	392	-863	31
-259	1079	67	669	31
-221	-128	-316	720	31
-26	-1172	-477	284	31
67	-1165	-269	-295	31
-78	-879	-186	-1095	31
-242	-570	-241	-276	31
-55	-206	42	50	31
302	252	131	20	31
845	290	105	314	31
562	456	-13	438	31
-67	902	-97	934	31
12	301	16	857	31
-524	-219	19	276	31
-640	-519	113	-155	31
-328	-303	-20	-813	31
195	36	-137	-833	31
380	-484	-220	-377	31
170	-449	-155	-468	31
311	-312	68	165	31
-92	-102	-74	577	31
135	421	33	471	31
116	922	92	587	31
-357	946	99	914	31
-516	284	181	1052	31
-598	170	63	547	31
44	-256	-157	-178	31
860	-715	-215	-1286	31
911	-125	-42	-791	31
41	-149	-73	-137	31
93	-329	-52	-151	31
350	-195	93	357	31
54	-215	183	135	31
-9	100	350	-288	31
24	493	407	-524	31
213	700	223	-340	31
-211	64	306	-484	31
-319	-639	184	315	31
-67	-461	-140	794	31
-72	-62	-417	795	31
-135	245	-650	967	31
-332	475	-174	-57	31
-391	643	326	-569	31
-398	46	481	-1276	31
-130	-533	12	-848	31
150	-251	-409	-1053	31
13	342	-354	-613	31
-270	1068	-438	688	31
-176	932	-151	330	31
133	-636	30	1464	31
193	-1575	117	1507	31
314	-801	113	557	31
191	97	135	-1104	31
-212	1323	452	-1719	31
-140	2017	340	35	31
-166	593	52	896	31
-271	-816	-108	704	31
21	-1693	-105	49	31
279	-1874	-204	117	31
267	-616	-337	383	31
-40	-166	-312	-122	31
-102	72	-70	-158	31
-142	698	138	64	31
77	461	253	-332	31
484	-96	239	-476	31
331	-342	145	-1134	31
181	265	257	-902	31
-145	854	-49	129	31
-499	469	-284	610	31
-602	-539	-292	1084	31
-439	-647	-148	898	31
-106	-519	87	-373	31
-74	-553	192	-1760	31
-2	183	12	-309	31
-12	234	-400	983	31
30	188	-244	800	31
541	494	64	946	31
731	1152	225	453	31
714	1232	393	540	31
240	-188	467	-205	31
-191	-786	661	-842	31
-164	-663	752	-1217	31
-593	-128	113	-797	31
-291	337	-485	213	31
-138	67	-327	2	31
61	111	-267	650	31
274	499	-226	135	31
-191	692	-100	-133	31
270	902	-406	278	31
169	-141	-626	292	31
-122	-2006	-408	319	31
269	-1102	145	38	31
697	-174	318	354	31
514	-136	146	583	31
-140	823	218	1270	31
11	106	-87	1071	31
-176	-132	-340	-255	31
-274	77	-262	-1676	31
-224	66	-226	-2362	31
-396	437	65	-1267	31
-292	-43	112	618	31
-231	-356	41	1509	31
-7	259	26	1348	31
-47	951	-161	789	31
-70	308	5	44	31
-24	-141	187	-477	31
-80	-72	274	-767	31
-104	-268	262	27	31
-298	-66	84	120	31
-413	-680	61	-11	31
-320	-950	136	339	31
150	292	193	41	31
544	1419	86	216	31
595	1378	-69	-75	31
292	-26	-184	-511	31
-283	-1459	-68	-154	31
-313	-1640	-42	140	31
59	-965	-123	-43	31
441	-379	-34	-92	31
445	-320	-113	-619	31
50	-203	4	-476	31
-228	693	156	661	31
-236	1420	47	-34	31
-62	644	37	-658	31
24	-588	173	-165	31
128	-492	357	608	31
7	-247	309	668	31
-352	39	217	-100	31
-87	892	251	-687	31
69	337	-35	-1020	31
-108	-748	-269	-428	31
42	-693	-535	-272	31
-121	-372	-713	-631	31
-386	-232	-266	-452	31
-465	167	-92	208	31
39	832	-87	669	31
439	1640	-79	1216	31
17	1568	-160	1308	31
224	-139	0	632	31
882	-1635	171	-389	31
685	-1155	262	-1530	31
110	-353	226	-651	31
69	-280	88	317	31
26	137	42	-231	31
-1	11	120	-858	31
-82	46	157	-394	31
-180	312	107	-55	31
-89	217	54	-517	31
-242	405	-31	78	31
-244	224	-347	368	31
-299	396	-404	947	31
-382	429	68	1371	31
-433	556	295	284	31
-300	369	226	-341	31
-82	-1075	63	115	31
-85	-1110	-77	-259	31
390	-482	55	-687	31
514	-542	101	-227	31
300	140	45	262	31
227	778	-51	620	31
-127	297	-151	205	31
-262	49	-186	-580	31
-344	666	-297	-1086	31
-350	567	-167	-11	31
-257	-491	69	534	31
-472	-438	141	152	31
-716	685	223	135	31
-815	1694	387	402	31
-993	1332	426	1082	31
-310	-1357	112	916	31
1161	-2184	-105	461	31
2182	-1601	-101	-345	31
1955	-1242	-84	-539	31
893	-696	-213	-634	31
511	-290	-228	-1140	31
122	122	-178	-722	31
-12	416	-280	50	31
-11	395	-198	714	31
-243	237	-229	754	31
-178	47	-64	-454	31
-287	307	301	-1363	31
-257	411	213	-429	31
-373	795	33	430	31
-413	556	70	1072	31
-445	48	62	768	31
-597	224	50	-548	31
-491	-647	368	-1163	31
-357	-766	586	-994	31
-79	264	242	168	31
137	670	-296	913	31
357	576	-608	590	31
792	-153	-697	-186	31
496	83	-530	-754	31
-102	607	-57	165	31
-90	27	348	1583	31
-294	-239	373	1037	31
-49	-500	159	116	31
163	-283	52	-215	31
44	131	78	-521	31
122	-365	22	-33	31
-186	-303	-49	633	31
-91	310	-89	640	31
-126	573	-43	189	31
-334	274	7	-666	31
-170	-161	130	-716	31
-233	116	243	453	31
-151	139	44	-150	31
-98	-165	-87	-274	31
-74	126	-45	190	31
424	480	-89	-20	31
385	6	-180	594	31
-194	-879	-140	-569	31
-354	-720	26	-2139	31
-206	-272	117	-781	31
397	-57	174	492	31
541	708	210	-370	31
-15	1624	109	180	31
-325	1868	52	355	31
-560	-107	-17	90	31
-495	-2084	4	420	31
158	-1777	172	42	31
712	-477	141	342	31
606	257	47	642	31
282	-170	-189	1104	31
119	-547	-325	917	31
57	-335	-138	221	31
-1	-252	-153	-532	31
70	-62	-174	-1020	31
165	118	-218	478	31
17	117	-441	1573	31
-297	269	-266	921	31
-374	224	150	-785	31
-68	798	500	-2376	31
92	1527	562	-1967	31
-186	558	174	-1051	31
-776	-511	-8	-259	31
-652	-425	39	-13	31
50	-484	118	-17	31
143	-538	138	319	31
391	173	41	289	31
858	256	47	661	31
498	-60	159	706	31
450	60	195	724	31
366	-4	41	427	31
-77	265	-12	-3	31
114	637	-208	-153	31
-113	526	-485	-137	31
-228	198	-206	233	31
-296	-163	115	368	31
-319	-307	-264	-229	31
-75	6	-284	-773	31
-132	-66	15	-89	31
17	-508	-86	60	31
-115	-9	-87	422	31
-280	-50	-232	533	31
-310	-419	-190	311	31
-511	-4	-200	729	31
-485	-61	-151	426	31
-189	178	92	282	31
87	699	47	-987	31
212	1359	171	-1731	31
204	1124	264	-534	31
133	-731	323	259	31
249	-1276	272	-119	31
350	-1051	133	-778	31
313	-871	136	-335	31
519	-136	77	484	31
441	-22	-52	1006	31
-31	290	-171	805	31
18	398	-73	416	31
-11	214	72	-163	31
-279	750	170	-1333	31
-317	253	252	-1136	31
-253	-598	72	-42	31
-39	-494	-207	292	31
12	-383	-222	368	31
49	-161	-79	104	31
71	56	-12	236	31
-76	209	37	1245	31
-330	388	22	722	31
-571	115	106	-97	31
-738	399	156	68	31
-554	620	-44	-792	31
204	-247	-138	-655	31
807	-365	-179	44	31
898	-257	-130	-198	31
148	-500	4	-91	31
-153	-371	192	-236	31
261	-339	284	-71	31
223	-24	160	464	31
311	190	-43	537	31
-29	442	-261	439	31
-145	1346	-179	539	31
46	1573	-6	800	31
-107	243	112	837	31
-166	-1387	-7	264	31
-74	-1523	-178	-492	31
180	-457	-66	-656	31
-98	-266	-117	-477	31
-459	-131	-167	-729	31
-398	438	-55	-1053	31
-176	-155	-2	-571	31
175	-328	186	-777	31
465	-191	409	-964	31
323	-221	209	146	31
346	92	79	221	31
214	431	31	527	31
-111	811	-135	343	31
59	541	9	-246	31
-162	1110	-42	545	31
-399	1450	-120	145	31
-410	-779	-60	231	31
-238	-2011	-182	98	31
266	-1102	-145	-18	31
290	-634	-14	484	31
-72	-83	134	402	31
115	190	244	827	31
394	-225	148	676	31
42	-133	-52	378	31
-204	46	-261	127	31
-118	103	-414	100	31
31	145	-342	-122	31
196	173	-150	-1159	31
-58	116	95	-1869	31
-509	42	383	-1204	31
-746	86	338	514	31
-686	60	176	806	31
-132	360	31	674	31
85	709	-86	630	31
28	374	93	-411	31
127	131	199	-703	31
65	-5	216	-382	31
540	-353	218	-54	31
837	-23	-27	36	31
431	-27	-285	-19	31
428	-211	-339	47	31
-1	-35	-256	-49	31
-459	-143	-108	-228	31
-246	35	72	-169	31
-375	93	108	189	31
-74	105	114	517	31
-85	119	-4	911	31
-507	31	-102	956	31
-283	49	-91	408	31
-259	73	-203	65	31
234	360	-87	296	31
949	-19	-132	187	31
253	-90	-176	-38	31
-631	1555	-27	-342	31
-449	1765	106	-160	31
-266	-553	197	476	31
469	-2104	229	-30	31
1527	-1914	138	-782	31
760	-1296	-82	-1384	31
260	-388	84	-1487	31
282	-82	178	-612	31
-170	32	191	-607	31
-11	205	141	-244	31
-178	99	75	534	31
-113	329	106	80	31
-163	364	-29	419	31
-284	905	-36	453	31
-329	1617	-173	323	31
-619	882	-231	348	31
-436	-203	-181	13	31
-360	-463	-102	221	31
7	-437	-9	300	31
285	-729	121	368	31
277	-719	232	65	31
115	-533	27	-252	31
-175	-513	-113	-186	31
-140	28	-173	95	31
-148	612	-87	726	31
-199	603	-134	1673	31
-637	69	-297	1565	31
-982	-92	-398	111	31
-535	1	-161	-1265	31
186	-355	270	-2028	31
1256	48	344	-2053	31
1709	497	336	-963	31
479	153	266	233	31
-10	2	361	401	31
120	-235	285	329	31
-270	-322	131	-127	31
145	44	180	-380	31
48	176	35	-1186	31
-305	92	-318	-840	31
-342	54	-389	484	31
-592	-133	-96	65	31
-660	-156	-48	685	31
-662	67	-62	855	31
46	158	-70	637	31
551	202	-42	737	31
424	179	-43	173	31
757	128	-127	140	31
443	305	-60	-28	31
-372	1169	-34	87	31
-553	1855	-54	269	31
-752	1069	-20	249	31
-380	-620	73	168	31
160	-2094	32	47	31
338	-2015	32	92	31
422	-906	115	297	31
120	-76	117	845	31
319	227	-136	823	31
764	9	-412	585	31
410	111	-283	-95	31
170	54	3	-1458	31
333	-55	286	-780	31
-49	230	213	178	31
-115	342	-5	-473	31
-231	646	-17	-550	31
-502	312	-17	257	31
-295	-288	-140	997	31
-380	-419	-146	-145	31
-275	-259	-65	-1423	31
-229	422	234	-1827	31
-332	327	544	-971	31
-344	-268	300	817	31
-383	-224	47	469	31
-282	-343	-6	336	31
-693	-422	38	352	31
-833	-121	5	71	31
-66	24	-4	287	31
673	-55	-30	26	31
1404	-49	-44	225	31
1373	68	28	677	31
525	89	-75	1095	31
113	144	-25	590	31
-14	461	27	-62	31
628	603	-74	-394	31
551	208	-193	-507	31
-205	-122	-102	11	31
103	331	172	229	31
-161	1128	17	575	31
-352	570	-153	37	31
-243	-1021	-204	-329	31
-96	-1449	-277	-675	31
156	-746	-98	-1055	31
7	-188	-12	194	31
-128	210	45	213	31
-179	17	7	-165	31
-113	-282	-161	-100	31
-155	264	-6	-82	31
-82	883	220	267	31
-144	1011	254	39	31
-325	273	186	-72	31
-252	-696	47	128	31
-163	-784	-148	188	31
-54	-473	-297	97	31
27	-976	45	-474	31
-88	-735	616	-433	31
-303	351	576	208	31
-363	774	41	-53	31
-297	1026	-347	-30	31
-56	-181	-287	-29	31
34	-962	-267	257	31
494	-314	-392	717	31
988	-307	-170	276	31
116	-31	72	170	31
-266	188	173	-396	31
31	143	166	-485	31
-24	249	17	-78	31
10	224	74	-314	31
-443	242	55	-570	31
-631	79	-73	-221	31
-121	97	-32	671	31
462	171	32	513	31
807	106	176	236	31
374	234	201	-314	31
-216	179	131	-1016	31
-573	669	-114	-274	31
-712	1081	-441	747	31
-744	-249	-364	1272	31
-737	-1309	-231	1474	31
29	-867	-110	463	31
544	-399	63	-1531	31
784	-187	32	-1609	31
1105	-5	29	-431	31
744	-37	97	-176	31
420	424	81	-42	31
183	687	-2	546	31
-141	-22	-9	428	31
-57	-262	223	-640	31
17	499	334	-666	31
-241	1322	275	96	31
-257	560	52	54	31
-198	-963	-115	618	31
-176	-791	-126	1529	31
202	522	-145	1037	31
382	1380	11	-481	31
101	265	65	-1504	31
-123	-1772	39	-758	31
-85	-1363	-85	-345	31
115	-686	-116	269	31
102	-642	124	703	31
-152	-32	198	-98	31
-317	-4	216	-120	31
-313	404	7	-318	31
-199	251	-230	-170	31
49	160	-213	-74	31
307	545	-376	-224	31
-107	-56	-251	342	31
-491	-160	117	923	31
-224	391	73	741	31
-38	251	-28	198	31
391	-293	6	130	31
390	37	43	117	31
-150	178	93	47	31
-104	-294	244	-349	31
-213	-236	232	15	31
-262	140	-111	-5	31
65	421	-141	-782	31
-61	255	30	-1135	31
-421	-16	-85	-620	31
-194	-217	-49	782	31
61	-220	87	620	31
141	-22	236	328	31
582	-81	383	281	31
130	37	285	-704	31
-191	258	249	-82	31
-182	487	39	1310	31
-719	835	-73	747	31
-348	691	-155	284	31
213	-171	-205	-1048	31
400	-574	-46	-1803	31
745	-150	-384	274	31
642	-156	-393	-185	31
89	-209	-116	-234	31
-10	-527	-107	228	31
-97	-539	-47	-452	31
-307	70	-47	184	31
-84	-186	-152	281	31
250	-37	-281	441	31
479	54	-192	140	31
190	-296	-199	-64	31
-116	-293	14	115	31
-70	-41	379	-117	31
-197	313	360	271	31
-74	465	352	387	31
178	484	138	-321	31
-61	-318	24	-734	31
-182	-459	-2	-352	31
-74	-9	-8	189	31
-231	-116	-30	135	31
-382	393	-145	7	31
-471	1168	-49	97	31
-362	1539	-42	148	31
85	1038	-67	385	31
51	192	-115	268	31
-271	-25	11	445	31
-161	-482	95	358	31
-377	-1461	112	-317	31
-372	-1918	139	128	31
471	-866	96	929	31
1025	19	93	650	31
962	189	-54	-365	31
700	667	-62	-951	31
303	551	115	-285	31
19	672	352	32	31
-238	769	274	-1033	31
-779	502	162	-1574	31
-802	-108	237	-729	31
-647	-185	-44	277	31
-613	716	-193	251	31
-338	-588	-62	148	31
-247	-1980	-138	37	31
-192	-804	-69	-128	31
813	82	110	232	31
1899	403	-27	580	31
1164	489	-329	390	31
535	-446	-513	-262	31
335	-709	-267	23	31
-11	-283	-1	242	31
75	-103	-42	514	31
-148	102	-189	563	31
-204	216	-254	203	31
-203	495	-215	531	31
-257	1201	-72	644	31
-309	1463	323	311	31
-413	-60	486	-525	31
-396	-1294	135	-51	31
-367	-620	-143	-376	31
-235	-429	-105	-1060	31
-127	-801	47	-64	31
-12	-409	77	196	31
89	-195	49	1262	31
97	-16	0	1509	31
-138	312	-229	4	31
-193	331	-318	-1050	31
-42	369	39	-1245	31
3	454	482	-1856	31
-31	844	570	-1690	31
-216	563	214	-1060	31
-68	179	-198	-709	31
-29	-79	-171	685	31
140	-977	49	769	31
329	-877	358	1223	31
-93	-281	605	822	31
-245	-179	341	431	31
-319	-517	-64	725	31
-280	-123	-373	135	31
188	649	-424	689	31
400	579	-453	787	31
-251	185	-342	630	31
-458	-355	9	326	31
-72	39	-122	-59	31
94	73	-155	-509	31
555	-72	64	-1337	31
506	265	118	-302	31
262	-235	-148	1190	31
-68	113	-184	838	31
181	77	-186	-85	31
384	-350	-270	-1535	31
-61	-117	233	-2228	31
459	-308	350	-629	31
290	388	132	448	31
-124	1119	17	749	31
-581	991	96	987	31
-1335	-117	158	612	31
-958	-762	68	526	31
1	-7	83	-188	31
1103	-317	-8	-779	31
870	-514	66	-547	31
264	-4	84	295	31
246	45	-70	428	31
36	-90	-155	-86	31
302	-370	248	-88	31
76	619	510	-173	31
-247	1417	24	652	31
-296	320	-169	987	31
-343	-447	-427	1056	31
-169	145	-680	699	31
-143	65	-254	216	31
-37	-1675	74	-95	31
-281	-1615	88	-1394	31
-383	-338	59	-1138	31
-52	-212	15	50	31
148	828	127	531	31
87	1294	251	-38	31
-225	519	318	-946	31
-97	243	278	-1310	31
316	-20	-345	-520	31
760	-512	-548	-654	31
731	-592	-11	-1150	31
-60	292	95	578	31
-192	176	123	-60	31
-291	-206	203	-985	31
-587	8	108	802	31
-355	-17	96	1255	31
-117	432	-27	576	31
-226	418	16	197	31
24	125	86	144	31
999	-134	-145	-249	31
535	21	-208	-403	31
27	126	-109	-163	31
290	-345	35	-589	31
-4	16	105	-151	31
-31	570	153	733	31
-194	1003	159	646	31
-183	1297	59	-17	31
-219	1400	61	-266	31
-334	417	111	201	31
-218	-1952	270	612	31
-170	-2158	156	546	31
132	-1269	-29	130	31
203	-920	-305	-272	31
-120	-168	-689	-252	31
-241	79	-478	-46	31
-12	65	-74	-118	31
-251	258	27	175	31
-466	479	-152	159	31
-418	686	-154	14	31
-611	81	26	-158	31
11	452	49	-344	31
265	1674	17	198	31
32	1470	-41	-306	31
1038	-422	7	-542	31
825	-1519	304	-15	31
140	-609	414	-651	31
479	-654	109	-223	31
-104	-445	-122	1216	31
-51	332	-90	1154	31
140	-439	88	1049	31
-146	-485	135	735	31
-77	-214	64	74	31
-189	-312	-85	-585	31
-124	72	7	-1030	31
-372	159	440	-376	31
-527	-46	317	-425	31
18	-130	-158	-922	31
563	193	-325	-757	31
517	156	-85	-774	31
163	-212	155	-1377	31
57	330	252	-1077	31
12	923	47	1392	31
-143	451	-341	1967	31
-504	-62	-318	1107	31
-576	249	-318	1457	31
-434	-13	-280	1208	31
-513	-707	-82	767	31
-296	-515	14	-692	31
231	-517	26	-2068	31
873	-683	174	-1878	31
1394	-292	335	-747	31
815	211	287	162	31
-45	697	264	218	31
-9	561	194	327	31
-161	-252	49	305	31
-314	-324	-130	299	31
-325	-232	-254	351	31
-459	-374	-228	216	31
-413	226	-169	357	31
-31	454	-86	817	31
199	263	-9	1173	31
170	122	-84	1141	31
478	-184	-59	143	31
173	-442	64	-1377	31
-84	-25	111	-1402	31
-69	744	-22	-724	31
-587	689	-289	44	31
-724	-11	-113	398	31
-518	-434	235	-407	31
-704	116	527	-449	31
-944	-131	544	681	31
-1071	-315	26	1769	31
-541	890	-88	-481	31
994	801	-284	-2236	31
1356	-511	-450	-889	31
1384	-358	-47	-754	31
1634	1552	100	-121	31
909	1103	59	1090	31
433	-1279	-296	542	31
90	-1794	-356	109	31
144	-957	53	-785	31
242	-351	278	-456	31
-20	-246	388	1538	31
-374	-1	106	1371	31
-707	-124	-151	346	31
-423	-92	-39	-756	31
-133	-24	-32	-347	31
185	243	-123	625	31
227	835	-180	507	31
-213	706	-150	479	31
-301	-29	-62	-486	31
-384	-704	60	-1482	31
-649	-249	299	-1219	31
-635	64	457	187	31
-481	4	322	1124	31
-34	338	-62	1191	31
247	229	-461	663	31
-727	-13	-510	-926	31
-1685	54	-72	-1218	31
-1489	-179	135	-133	31
-1085	-407	-2	-634	31
-496	135	-31	-565	31
972	517	-34	479	31
2508	1195	40	537	31
2539	763	138	557	31
1851	-775	29	149	31
1201	-247	-80	-233	31
322	72	250	270	31
-12	-373	458	941	31
-104	-399	92	662	31
-315	-621	-208	-166	31
-86	-322	-355	-1117	31
-177	38	-281	-957	31
-547	504	103	-433	31
-693	601	465	309	31
-466	-108	459	1168	31
-124	-242	251	481	31
55	-113	173	807	31
-160	3	11	-153	31
-158	297	-203	-1495	31
-244	358	-403	-1164	31
-650	169	-428	-120	31
-730	-287	-495	382	31
-706	-415	-343	199	31
7	-47	-97	780	31
740	79	-5	273	31
646	-101	100	-292	31
-268	41	178	-690	31
-674	67	254	75	31
-116	-333	145	591	31
839	-114	170	644	31
1245	102	30	1099	31
155	81	-198	130	31
-269	430	-348	-832	31
-461	767	-462	-408	31
-466	803	-255	431	31
242	-145	124	-26	31
290	-814	419	-417	31
-117	-452	554	-1369	31
-481	-486	534	-1447	31
-920	-236	198	205	31
-1422	-161	-107	254	31
-931	-539	-266	185	31
0	264	-244	587	31
1141	550	-172	1038	31
112	312	-186	1332	31
-1010	884	-33	961	31
1397	422	299	560	31
2086	-587	270	11	31
2022	-585	-93	-529	31
1700	128	-130	-880	31
90	597	-107	-1050	31
-91	-85	88	-1914	31
-363	-327	394	-855	31
-478	212	569	732	31
-89	-263	503	-21	31
-11	-646	44	-314	31
-295	-545	-246	-352	31
-369	-641	-204	733	31
-324	-191	-384	1701	31
-505	90	-859	1629	31
-443	174	-726	1247	31
-589	252	-171	-403	31
-449	-52	129	-2071	31
-408	126	204	-1199	31
-722	289	97	-624	31
-771	330	85	-1116	31
-19	510	165	496	31
700	50	188	856	31
264	-406	306	681	31
-245	-184	364	470	31
365	42	100	207	31
976	18	55	270	31
524	103	-108	-322	31
422	94	-489	70	31
103	20	-456	-98	31
-69	204	-286	-655	31
9	416	-73	305	31
-436	618	31	823	31
-421	178	127	-668	31
-477	-619	305	-1446	31
-193	-477	328	-650	31
155	-232	272	411	31
-90	-87	212	966	31
94	424	110	876	31
199	458	146	502	31
23	70	289	-46	31
-431	-317	-95	-24	31
-1017	-211	-391	714	31
-762	91	-494	752	31
172	-161	-658	921	31
908	59	-576	697	31
959	441	-542	-1229	31
934	-179	-264	-2399	31
339	-492	411	-1810	31
-258	-54	906	509	31
-274	144	745	1794	31
-666	-88	108	1019	31
-701	-424	-110	471	31
-358	-53	29	723	31
-102	-49	-50	667	31
112	-320	-36	77	31
514	-3	138	-195	31
1030	-71	267	221	31
1097	270	332	77	31
562	454	299	-206	31
-289	275	57	-173	31
-481	534	-223	-334	31
160	1069	-280	-44	31
370	1084	-216	-23	31
-300	-565	15	483	31
-148	-1520	239	1235	31
641	-1138	-38	1144	31
267	-669	-315	-120	31
-379	-322	-464	-2270	31
-477	65	-530	-2316	31
-347	513	-156	-1145	31
-356	484	70	-953	31
-430	210	341	-784	31
-533	-484	451	-562	31
-673	-44	196	-544	31
-627	852	141	73	31
-644	312	-190	742	31
-19	-348	-260	443	31
1186	-568	-194	333	31
1698	-460	-290	-69	31
875	64	-89	534	31
96	631	-50	948	31
74	199	26	8	31
-213	-272	210	62	31
-246	-196	239	-608	31
-394	-335	272	-418	31
-524	-90	414	-172	31
-134	-65	489	-777	31
-44	-386	217	-178	31
567	-7	-31	199	31
666	157	-256	612	31
-144	-5	-479	903	31
-36	119	-471	827	31
-232	-75	-365	641	31
-512	65	-239	-780	31
-434	422	-201	-1846	31
-709	873	108	-652	31
-358	1451	199	446	31
378	618	186	415	31
-28	-906	337	161	31
-517	-1205	261	-85	31
487	-438	309	146	31
830	100	-3	-130	31
377	-251	-404	-70	31
17	-354	-545	252	31
67	80	-275	-37	31
31	112	218	263	31
-314	141	310	335	31
-194	-125	192	203	31
-214	-60	-98	271	31
42	223	-199	559	31
200	-118	-491	940	31
-50	95	-360	749	31
-24	107	320	72	31
84	122	501	-1783	31
-102	414	527	-1974	31
-147	524	229	-775	31
-84	317	104	-498	31
-199	-492	-14	801	31
-209	-323	-165	855	31
-484	457	-89	243	31
-707	890	-115	535	31
-611	401	-44	577	31
4	-723	25	-60	31
901	-736	127	-1452	31
997	-921	-26	-773	31
239	-853	-171	124	31
-64	-84	-150	314	31
247	-264	17	697	31
-97	44	133	348	31
109	115	4	46	31
223	-80	13	-607	31
459	695	-55	-430	31
888	1175	-119	-460	31
-158	609	1	-107	31
-378	-742	150	494	31
-132	-636	198	28	31
67	246	58	450	31
146	-97	-129	487	31
-296	-452	-218	372	31
-199	-471	21	614	31
-224	-249	275	804	31
-307	315	-101	903	31
-259	895	-412	-161	31
74	753	-409	-1244	31
-72	46	-370	-443	31
-640	210	7	938	31
-289	331	113	244	31
-4	-365	79	-669	31
287	-842	133	-884	31
593	-636	272	-1237	31
-363	-307	315	-607	31
-1005	-220	27	203	31
-194	125	256	444	31
586	303	391	535	31
828	305	299	352	31
900	589	341	-41	31
727	226	-3	-173	31
198	-174	-384	25	31
153	397	-501	843	31
-52	782	-523	1265	31
-300	349	-509	820	31
-100	-226	-243	-44	31
-175	-272	176	-1050	31
-13	-649	353	-1295	31
-90	-632	183	-585	31
-274	-153	-69	-111	31
-489	-389	-28	-520	31
-482	-95	142	-260	31
37	-66	-17	-31	31
151	82	-146	657	31
171	619	-135	673	31
200	387	-23	-367	31
129	51	140	-297	31
70	-309	66	323	31
-9	5	121	867	31
-243	827	130	46	31
-619	599	87	-681	31
-572	-472	34	-269	31
-422	-256	-168	549	31
-279	697	-212	815	31
-341	748	-203	510	31
-534	-47	-30	-149	31
295	-1424	243	-900	31
1133	-1499	300	-416	31
1109	-333	389	439	31
737	739	391	322	31
-138	1090	122	-178	31
-334	-364	-60	-787	31
52	-1522	-226	-360	31
363	-452	-327	154	31
750	232	-171	-608	31
-140	72	39	-532	31
-525	128	178	201	31
-161	-200	27	1183	31
-14	-166	-352	340	31
341	411	-406	-478	31
-358	1477	-205	154	31
-949	1469	-110	24	31
-1103	-607	136	-49	31
-862	-1345	246	-274	31
72	-407	99	-62	31
1077	-504	57	-173	31
1389	-361	-84	16	31
876	223	-110	935	31
476	96	-4	845	31
-123	291	108	-254	31
-268	414	84	-562	31
-322	205	64	-2	31
-363	-41	225	23	31
-118	68	226	178	31
4	304	181	-7	31
277	-53	-89	473	31
171	-145	-517	1070	31
109	13	-693	704	31
43	40	-499	61	31
-431	289	79	-501	31
-694	675	570	-775	31
-451	1415	487	-1205	31
-132	1840	188	-1209	31
57	-92	127	-513	31
115	-2211	55	173	31
214	-1692	-179	205	31
328	-241	-338	183	31
49	-265	-156	21	31
-141	-496	27	-29	31
-254	-180	221	199	31
-183	425	199	519	31
35	-45	-168	767	31
87	-25	-183	325	31
408	470	-91	-181	31
185	-254	7	-384	31
-180	297	13	-736	31
37	955	59	-1009	31
-113	209	237	-532	31
-264	-262	316	631	31
-85	-51	507	753	31
19	-301	486	181	31
-46	-753	284	482	31
-89	-494	135	-183	31
-362	-599	-411	94	31
-688	-103	-770	547	31
-808	476	-694	-252	31
-952	664	-561	103	31
-64	515	-249	-656	31
1381	-437	-17	-1236	31
1775	177	272	22	31
1329	1134	400	810	31
552	97	324	597	31
149	-882	2	382	31
157	-456	-322	-242	31
-19	-401	-191	-453	31
-153	-356	-14	153	31
-162	311	172	-179	31
-288	92	355	-575	31
-406	-125	415	-100	31
-206	-27	59	965	31
-29	192	-361	1696	31
140	1013	-709	1414	31
-2	1203	-973	335	31
-434	-74	-612	-360	31
-477	-1175	-46	-807	31
-314	-1036	468	-951	31
275	-540	874	-1241	31
391	471	1102	-1537	31
113	1055	854	220	31
-146	697	526	-96	31
-463	355	373	-549	31
-424	-61	118	859	31
-382	-294	-169	722	31
31	-915	-663	858	31
181	-1244	-681	162	31
279	-103	-440	-661	31
344	1274	-196	-698	31
-93	1303	56	380	31
138	-640	-234	1305	31
555	-1486	-508	582	31
352	-551	-566	552	31
58	-315	-230	14	31
17	42	307	-1077	31
-252	389	264	-1524	31
-458	399	138	-548	31
-491	277	353	668	31
-596	174	509	704	31
-512	1256	463	400	31
-331	1595	292	-674	31
77	-292	204	-1181	31
266	-1620	-8	340	31
353	-1330	-240	1140	31
679	-616	-205	608	31
330	-49	-350	-289	31
-274	144	-294	-1325	31
-149	501	-171	-572	31
97	279	-122	-143	31
428	-373	-9	-661	31
743	-270	70	256	31
454	122	284	577	31
123	540	168	358	31
-120	29	39	704	31
-381	-272	-96	685	31
-833	165	-411	815	31
-1388	173	-555	496	31
-1541	1196	-459	-580	31
-851	1110	17	-905	31
1450	-320	380	-417	31
2446	-343	229	-4	31
1131	-838	28	582	31
434	-1208	274	797	31
370	-512	606	415	31
189	-141	525	329	31
46	333	179	-399	31
-127	620	270	-1616	31
-188	322	232	-1232	31
-274	-165	-136	-885	31
-221	-374	-249	-19	31
-162	-27	-613	-164	31
-208	98	-566	-792	31
-314	298	-208	1599	31
-699	982	38	1672	31
-1158	1040	155	499	31
-1075	-92	70	-553	31
-206	-1125	116	-553	31
880	-793	-54	-49	31
874	195	-145	57	31
14	575	-333	1348	31
-87	-464	-363	-12	31
144	-957	-141	-410	31
183	-408	-60	-564	31
89	-357	116	-670	31
-243	-141	65	353	31
-175	381	60	354	31
161	1431	112	691	31
-193	1956	226	-75	31
-930	553	113	147	31
-552	-1342	-42	142	31
272	-1631	232	-689	31
995	-1039	655	-318	31
1057	-583	1118	-501	31
295	24	853	-360	31
208	62	-9	-236	31
199	254	-735	-572	31
185	421	-974	-229	31
90	224	-940	425	31
-81	392	-781	1215	31
-46	472	-365	771	31
-245	449	45	530	31
-140	260	260	833	31
-97	-181	365	-612	31
-127	-549	279	-1350	31
-103	-28	-49	-888	31
-201	575	70	-612	31
-361	350	81	416	31
-477	-66	-109	991	31
-356	302	0	398	31
-128	1330	40	-336	31
-3	517	246	-224	31
-129	-1010	270	420	31
1	-1327	13	341	31
163	-1200	-106	287	31
248	-637	-160	365	31
-13	-17	-236	390	31
-691	-79	-233	329	31
-547	-300	-2	90	31
203	250	206	-540	31
941	373	185	-496	31
621	230	105	1287	31
-65	844	154	871	31
-67	1185	101	-1413	31
-449	821	-47	-2318	31
-448	-580	-216	-1333	31
257	-1105	4	-202	31
832	-188	514	-50	31
-104	-279	464	188	31
-1215	-131	334	267	31
-46	760	249	1226	31
894	1235	-139	881	31
739	940	-479	-291	31
883	-538	-543	-347	31
815	-1787	-497	-322	31
489	-1264	-544	156	31
376	-129	-309	463	31
-80	-159	-59	393	31
-378	125	10	226	31
-243	374	101	122	31
-345	24	107	349	31
-118	97	129	1082	31
-31	93	23	760	31
-129	482	128	-60	31
-249	589	221	-159	31
-439	1017	175	-1269	31
-365	806	108	-1607	31
-628	-715	-201	-1120	31
-791	-942	-76	-1665	31
-565	-981	199	-632	31
-4	-761	213	858	31
350	275	228	757	31
31	1068	35	679	31
61	858	-39	228	31
36	-610	74	210	31
234	-679	380	352	31
938	-126	570	617	31
608	-223	9	740	31
37	235	-548	99	31
36	120	-699	-15	31
-123	-121	-625	-810	31
-87	-497	-148	-965	31
-41	-530	454	537	31
-84	127	697	513	31
-81	65	602	94	31
-165	431	390	715	31
3	682	-32	732	31
-166	256	-673	582	31
-427	-276	-1086	183	31
-476	-465	-613	-101	31
-621	40	-309	56	31
-220	341	-466	175	31
327	216	-112	-792	31
593	-158	150	-2005	31
525	617	476	-1530	31
122	1545	641	-200	31
-107	528	478	354	31
-201	-869	309	95	31
94	-1298	31	124	31
-4	-899	-56	238	31
-539	-427	-133	525	31
-138	-263	4	871	31
111	-484	93	916	31
343	117	187	784	31
540	1009	194	1009	31
-517	392	15	-473	31
-748	-122	-69	-2121	31
-6	-20	-404	-1013	31
860	130	-381	-201	31
1213	-78	-214	-145	31
-79	134	-169	127	31
-721	715	14	314	31
-663	-322	13	536	31
-438	-848	-111	456	31
166	419	-97	421	31
449	948	185	25	31
492	241	308	-794	31
60	-472	266	-771	31
304	-718	165	-23	31
9	-554	45	636	31
18	-537	-20	11	31
375	-214	-14	-1089	31
160	129	243	-675	31
762	4	110	249	31
4	587	-306	1094	31
-320	359	-239	1344	31
21	-420	60	919	31
-271	-257	163	469	31
64	-91	50	-992	31
-17	33	-179	-1399	31
-138	76	-315	-411	31
-309	95	-95	-188	31
-405	127	249	-95	31
-237	130	311	9	31
-84	101	156	45	31
136	97	52	-29	31
54	252	-63	240	31
-153	216	-239	311	31
-193	60	-126	-92	31
4	-200	-22	16	31
18	-198	-115	226	31
-94	78	4	186	31
-113	21	47	221	31
5	122	-1	144	31
5	381	-72	-60	31
-108	472	-65	-84	31
-174	182	100	-696	31
-266	-374	89	-671	31
-163	-161	39	297	31
-126	178	-34	583	31
-97	-278	9	104	31
86	-341	57	-161	31
285	246	-110	223	31
-11	650	-143	277	31
-368	118	-172	315	31
-95	-791	85	300	31
154	-626	426	84	31
276	-451	293	-517	31
358	-117	113	-1024	31
322	755	20	-792	31
65	1097	-39	156	31
-40	628	54	719	31
-694	24	-54	337	31
-1444	558	-214	281	31
-794	253	-199	-206	31
347	-1059	-412	-231	31
1368	-1489	-318	189	31
1018	-1297	37	141	31
-83	-509	69	219	31
85	-102	130	72	31
659	-168	-6	-183	31
768	113	-142	145	31
903	173	-175	1086	31
611	358	-374	911	31
-112	897	-174	-760	31
-158	1347	98	-2047	31
-324	512	337	-1149	31
-428	-1115	486	-203	31
-286	-804	366	-140	31
-202	-198	224	393	31
71	-296	114	426	31
-170	12	17	842	31
-393	-66	65	704	31
-263	74	345	454	31
-122	279	227	306	31
85	354	-33	-396	31
65	363	-224	-3	31
-70	-37	-276	-18	31
11	45	41	-697	31
-117	410	28	-554	31
-387	670	-239	4	31
-320	295	-290	-125	31
-250	-533	-291	144	31
-2	-518	-132	291	31
272	-244	159	393	31
117	-64	156	492	31
-54	355	155	-544	31
-168	233	138	-480	31
-426	141	-122	90	31
-694	645	-224	271	31
-576	-13	-143	446	31
-393	-871	-117	174	31
-173	-171	-188	-122	31
664	310	-90	-198	31
942	-2	73	-170	31
513	-206	-11	12	31
914	-172	-57	178	31
667	-304	72	-179	31
-227	-596	264	-337	31
-399	-298	223	125	31
-789	-29	43	653	31
-724	41	-18	324	31
-372	481	-224	-454	31
12	895	-218	-615	31
628	1281	55	-701	31
443	996	110	-98	31
78	-416	190	433	31
321	-1299	267	-134	31
467	-227	168	-389	31
469	48	140	-216	31
270	-1183	150	57	31
-115	-613	83	50	31
254	-122	-174	281	31
408	-211	-313	326	31
140	337	-248	371	31
-107	388	-32	620	31
-341	257	281	331	31
-153	-136	189	57	31
-231	-130	-120	-624	31
-569	100	-139	-168	31
-493	-8	-7	319	31
131	-31	-65	12	31
224	-184	-57	253	31
28	59	7	-119	31
168	452	-53	-203	31
84	365	13	20	31
1	255	149	238	31
-47	191	203	108	31
-79	82	52	-445	31
-142	28	-47	-564	31
-133	7	-73	-177	31
-96	14	-183	55	31
-178	-15	-241	191	31
-193	-67	-277	781	31
-222	104	-58	592	31
-275	528	7	-50	31
-211	772	72	-764	31
-160	-14	295	-317	31
-319	-844	-64	304	31
-426	-291	-441	440	31
-624	113	-194	858	31
-712	24	90	255	31
187	258	87	-998	31
1110	474	108	-2164	31
1166	-9	31	-438	31
803	-929	-6	939	31
143	-208	69	287	31
-353	173	28	202	31
-689	-737	207	-461	31
-853	-160	461	-286	31
-728	390	246	324	31
170	348	44	807	31
1700	226	-136	512	31
1563	-176	-393	-270	31
710	-4	-211	-12	31
472	-261	-25	-249	31
56	-802	50	-405	31
125	-714	103	246	31
-16	-436	184	853	31
-264	-142	212	642	31
-337	568	72	187	31
-573	1241	-13	123	31
-411	678	-231	-57	31
-664	-280	-258	5	31
-920	-744	45	-470	31
-646	-635	193	-634	31
-59	9	120	-469	31
747	-20	-70	-541	31
650	-176	-132	-239	31
360	161	-130	-89	31
585	34	-145	27	31
11	198	-27	29	31
-280	292	-41	111	31
47	86	-77	188	31
-117	262	4	524	31
-93	173	69	686	31
-85	366	164	615	31
-97	443	77	339	31
-12	20	-29	-688	31
-85	51	61	-455	31
-184	186	252	328	31
-218	-355	360	-290	31
-334	-636	350	-332	31
-547	-107	24	-190	31
-297	-105	-370	-263	31
-47	-86	-375	-81	31
118	60	-510	-208	31
585	79	-416	249	31
324	391	-80	-44	31
-62	892	-123	-585	31
81	1362	40	-747	31
-233	-39	218	-881	31
-502	-1471	220	-252	31
-352	-951	271	391	31
-60	-714	213	443	31
429	-280	132	330	31
563	299	-74	389	31
211	306	-158	361	31
227	188	-80	370	31
36	-456	-34	350	31
-650	-474	45	198	31
-682	1	84	240	31
-79	181	80	1075	31
616	57	73	1767	31
1132	-47	70	1038	31
1199	317	100	-668	31
347	396	6	-2274	31
-292	1175	50	-1754	31
-269	1702	44	443	31
-391	197	-260	713	31
-273	-872	-145	464	31
-352	-1170	29	565	31
-314	-1236	-50	147	31
-197	-532	-141	10	31
-2	82	-269	-15	31
285	247	-179	156	31
-124	-408	-68	49	31
-470	-404	-44	245	31
-233	92	-22	188	31
96	180	16	-365	31
256	804	102	59	31
631	697	59	839	31
317	17	183	1076	31
-29	-417	482	232	31
211	-423	575	-1813	31
-122	153	208	-2340	31
-262	314	-166	-710	31
-671	-87	-357	191	31
-899	-414	-606	727	31
-518	-459	-449	554	31
134	-130	-317	259	31
1095	462	-219	112	31
577	502	114	-904	31
-277	471	295	-843	31
-391	300	463	-713	31
-509	-334	486	-340	31
127	-748	249	220	31
315	-925	89	-166	31
-116	-330	123	151	31
-406	179	-44	732	31
-725	451	-70	613	31
-219	625	123	717	31
1224	245	21	100	31
1982	486	16	-919	31
710	117	-391	-75	31
-106	-290	-716	279	31
-132	-96	-322	-391	31
-406	-461	85	-578	31
83	-29	390	-837	31
341	90	272	-633	31
14	170	75	-651	31
-304	217	-117	108	31
-399	-302	-248	1540	31
-461	-79	-212	1431	31
-272	-145	-302	353	31
14	-24	-203	-163	31
27	383	-57	-326	31
-391	462	253	-1651	31
-689	713	694	-1199	31
-302	960	780	191	31
209	210	352	142	31
838	-1204	-221	784	31
370	-1191	-186	614	31
-16	-654	170	248	31
270	-383	247	-118	31
-148	-22	73	-536	31
-204	-123	-270	115	31
-621	-24	-439	380	31
-774	92	-421	230	31
-137	381	-194	363	31
415	1172	2	478	31
711	1075	-221	472	31
-25	-51	-248	436	31
-272	-558	-112	-224	31
168	-132	6	-402	31
242	-186	110	440	31
216	-672	-62	643	31
-46	-448	-142	749	31
-50	55	96	770	31
113	140	224	-305	31
-9	89	-7	-1451	31
-258	-16	62	-2175	31
-198	-58	294	-479	31
-108	36	195	795	31
-102	194	100	51	31
-155	527	-66	327	31
-613	337	-108	8	31
-543	-237	163	-151	31
34	1	223	-319	31
248	530	-1	113	31
191	598	-224	559	31
349	507	-75	-228	31
146	143	221	449	31
-75	-345	-48	1198	31
401	-1109	-340	1040	31
112	-1481	-198	-11	31
7	-584	65	-1052	31
272	-133	265	-167	31
96	133	341	-432	31
-42	1093	189	-695	31
-570	1770	-70	939	31
-148	846	-279	671	31
458	-1509	-371	-122	31
823	-1675	-238	-639	31
1000	-881	-16	-1327	31
165	-639	-16	-1055	31
-3	38	-118	423	31
-208	-72	-94	1135	31
-262	116	-20	193	31
-116	303	280	-262	31
-302	508	565	-892	31
-116	500	572	-596	31
-247	48	529	307	31
-196	346	658	108	31
-175	173	383	-12	31
-263	-2	-281	-143	31
-89	-12	-560	69	31
268	-78	-885	228	31
315	110	-1057	444	31
-201	98	-702	722	31
-128	386	-136	-183	31
-47	1110	204	-686	31
-114	1287	321	122	31
-58	-128	113	1294	31
-64	-970	-461	588	31
89	-416	-484	-444	31
2	-765	-14	-1032	31
-130	-909	548	-1135	31
-328	-343	545	-572	31
-512	-165	423	161	31
-488	-133	485	1570	31
-50	-90	11	974	31
530	27	-47	-129	31
443	28	100	-1210	31
268	87	-49	-1018	31
181	267	-157	550	31
-226	302	-220	468	31
-322	551	-341	-694	31
111	1167	-566	-1051	31
461	780	-211	552	31
-314	67	147	370	31
-1202	352	337	-283	31
-648	-404	754	-79	31
-99	-1205	754	305	31
218	-918	550	677	31
507	-862	353	225	31
898	-471	64	1172	31
727	-247	-565	1563	31
664	33	-1261	987	31
1437	441	-1203	17	31
552	165	-690	-1690	31
-207	203	-5	-2368	31
-55	152	507	-971	31
-253	70	645	267	31
-235	242	727	597	31
-281	593	559	1037	31
-401	1391	156	112	31
-684	728	-170	-175	31
-543	-889	-193	139	31
-307	-1092	-307	94	31
76	-540	-381	105	31
521	-469	-147	299	31
131	-259	66	716	31
103	126	121	730	31
97	264	214	290	31
-99	466	398	-394	31
-12	16	140	-1315	31
-54	-260	-121	-1787	31
-69	327	-175	-201	31
-201	798	-333	-165	31
-472	568	-2	-132	31
-588	-536	341	1449	31
-359	-969	112	1312	31
-190	-433	-290	1303	31
166	-341	-532	-342	31
588	-168	-406	-1476	31
61	153	-169	-775	31
-322	129	39	-1330	31
-155	266	107	-1879	31
-165	14	296	-724	31
-96	-50	685	787	31
170	473	752	1029	31
747	940	768	1371	31
677	943	360	1106	31
232	-125	-565	420	31
106	-771	-876	192	31
1	-451	-778	993	31
80	-332	-663	1572	31
-7	-92	-381	667	31
9	41	-237	-675	31
-41	-211	-98	-2338	31
-214	422	459	-1654	31
-265	722	832	746	31
-345	-295	653	1409	31
-289	-786	267	1057	31
-99	-456	-239	847	31
11	398	-303	720	31
-266	1125	-26	792	31
-792	840	-4	391	31
-1121	-409	-136	-270	31
-397	-998	-145	304	31
939	-73	-1	-12	31
1335	-295	322	-795	31
1050	-1011	535	6	31
645	-502	263	404	31
328	-268	6	-143	31
150	-26	-19	-1467	31
-93	100	67	-2207	31
-91	100	-79	-883	31
-150	347	-312	-80	31
-343	586	-319	87	31
-453	1011	-244	172	31
-295	380	103	487	31
16	-316	262	747	31
193	87	185	-28	31
289	-150	-477	-526	31
-150	-278	-889	-1647	31
-270	300	-429	-1158	31
-83	-298	-70	-416	31
-132	-657	577	-1764	31
198	-121	671	-411	31
263	-286	315	767	31
-79	199	318	474	31
-277	422	219	1077	31
-404	-87	36	840	31
-537	44	-252	514	31
-282	27	-620	221	31
12	-120	-754	479	31
223	-49	-199	-29	31
556	270	358	-1077	31
223	741	241	-500	31
-31	1104	117	-555	31
156	491	-11	-175	31
335	-807	-267	1294	31
357	-1136	-245	1978	31
44	-712	121	931	31
103	-282	342	-1626	31
36	1	183	-2287	31
-40	24	-98	-1608	31
-65	59	-168	-1254	31
-295	221	72	-95	31
-303	329	208	1367	31
-380	297	363	705	31
-337	319	234	320	31
-272	480	-6	-188	31
-46	537	95	-131	31
140	408	143	235	31
139	-33	87	82	31
62	-783	-44	610	31
-28	-1098	-15	774	31
259	-492	-15	1228	31
332	22	86	1503	31
177	-333	198	1101	31
16	-308	-95	-681	31
19	63	-244	-2149	31
143	-73	-168	-1062	31
68	93	-234	438	31
-22	166	-516	684	31
-72	363	-385	184	31
-5	793	-89	447	31
-89	419	-68	45	31
-161	-38	69	93	31
-115	78	97	279	31
-284	306	284	-656	31
-609	5	348	-175	31
-551	-394	373	-749	31
122	-727	344	-1400	31
559	-630	4	-1244	31
712	149	53	-809	31
357	432	171	337	31
-87	513	117	878	31
49	284	-330	1825	31
-76	-443	-621	2000	31
67	-519	-580	1533	31
139	-477	-557	206	31
-100	-408	-256	-1719	31
-47	-52	44	-2231	31
-56	-49	386	-1636	31
-9	128	400	-377	31
-39	322	237	536	31
-138	516	373	838	31
-284	545	176	1183	31
-514	-81	-261	631	31
-671	27	-549	1045	31
-387	426	-658	1338	31
106	-61	-553	734	31
539	-388	-300	-115	31
1002	-451	308	-2244	31
483	-303	809	-976	31
84	24	886	1204	31
317	22	644	-323	31
21	219	183	-682	31
-86	408	-40	-775	31
-143	366	-123	-468	31
-141	1140	-183	829	31
-115	1864	-11	431	31
-257	93	45	196	31
-183	-1486	-37	170	31
-32	-945	-70	428	31
125	-1028	-119	709	31
60	-1052	-118	361	31
75	-343	41	398	31
110	306	232	309	31
-108	657	0	123	31
-181	47	-163	-79	31
-12	-836	-204	-135	31
69	-793	-161	-511	31
161	-212	300	-567	31
263	29	383	-399	31
67	210	371	-614	31
-41	449	741	145	31
-152	400	495	478	31
-276	487	-333	-550	31
-127	655	-648	-1317	31
-132	312	-1083	-342	31
-244	-155	-1446	442	31
-180	87	-664	292	31
-140	169	-69	594	31
-173	-20	-72	454	31
-32	726	47	-487	31
-16	586	198	-1731	31
14	-695	414	-888	31
236	-609	284	-388	31
73	176	180	-298	31
-251	-191	351	16	31
-74	-768	543	329	31
329	318	731	1983	31
199	799	218	1833	31
-129	-204	-517	1237	31
146	-554	-904	137	31
668	-598	-685	-1275	31
487	-418	-160	-1674	31
274	-418	293	-1714	31
264	-385	871	-1634	31
-84	-55	886	-1169	31
24	96	537	431	31
46	185	38	385	31
-129	209	-302	497	31
-97	269	-327	825	31
-124	255	-324	916	31
-42	345	64	1111	31
-105	315	176	436	31
-159	163	-33	-122	31
-269	3	9	-955	31
-246	255	-260	443	31
-15	732	-156	984	31
-69	295	615	1037	31
-90	-294	580	1825	31
14	-242	-98	957	31
3	592	-572	-779	31
-128	808	-661	-2380	31
-191	-573	-314	-1088	31
-79	-1148	57	1423	31
50	-661	178	977	31
96	-312	-37	751	31
81	-122	-248	840	31
-6	16	-204	528	31
-79	247	-297	411	31
-26	1034	-625	1365	31
-100	2043	-521	545	31
-334	1037	-118	-1385	31
-418	-1192	290	-2287	31
-131	-2023	1026	-2392	31
222	-1739	1665	-1511	31
230	-752	1909	-247	31
95	-276	998	468	31
183	-488	-140	438	31
322	184	-803	593	31
186	900	-1894	264	31
16	75	-1773	812	31
16	-771	-722	1355	31
130	-472	-646	762	31
246	-259	-535	449	31
251	-166	20	-919	31
63	105	653	-2354	31
-65	145	1018	-961	31
-108	231	705	961	31
-185	417	403	656	31
-165	456	90	630	31
-173	520	31	539	31
-65	556	85	132	31
94	1038	177	169	31
-41	1334	403	166	31
-257	189	-48	337	31
-135	-874	-439	454	31
30	-492	-653	647	31
140	-233	-625	-183	31
246	-414	-183	-1462	31
89	80	139	-2335	31
24	389	416	-1919	31
-5	1143	462	-308	31
-229	1883	443	690	31
-390	700	387	736	31
-357	-805	72	716	31
-231	-515	-252	625	31
-74	-358	-324	222	31
243	-1626	-21	616	31
607	-839	525	848	31
601	223	381	813	31
205	31	-484	128	31
-16	-258	-743	-631	31
-38	-730	-110	-1027	31
-23	-33	504	-2239	31
39	-90	340	-926	31
-14	91	-141	1492	31
13	575	-795	1173	31
2	236	-1000	789	31
-84	608	-488	405	31
-64	489	-130	-1170	31
-122	300	381	-1800	31
-80	-201	562	169	31
-170	-721	547	660	31
-130	-289	476	12	31
199	-126	62	-550	31
3	-171	-18	-1429	31
-18	-117	-112	497	31
85	52	-109	644	31
-100	464	107	-557	31
-14	376	221	-324	31
-62	-303	121	-472	31
-61	-292	77	-378	31
2	-22	216	-135	31
-89	-115	175	529	31
-105	357	282	651	31
-41	791	240	695	31
102	504	145	879	31
-2	-16	31	320	31
-144	-397	-330	-354	31
-211	44	241	-1601	31
-269	1099	789	-1687	31
-238	748	111	-256	31
-133	-704	-429	67	31
145	-388	-1293	348	31
236	-60	-1761	444	31
193	-1195	-893	201	31
277	-1013	-315	145	31
260	-116	-105	-171	31
62	209	54	60	31
-46	-165	127	325	31
68	-222	390	681	31
171	-27	495	632	31
160	163	115	672	31
100	1329	6	1299	31
-113	523	-7	745	31
-269	-849	72	-757	31
15	-491	475	-2222	31
180	-250	554	-739	31
-119	-409	143	1806	31
-133	-414	97	1537	31
236	-110	868	918	31
235	-155	1053	-367	31
105	16	651	-1241	31
242	82	198	-545	31
12	82	-536	367	31
-149	389	-1051	689	31
-84	694	-738	54	31
-244	1134	-173	-45	31
-250	456	-96	-221	31
-297	-199	-110	126	31
-266	82	-256	-286	31
-77	-132	-257	-1233	31
-34	-979	-55	-584	31
111	-1082	152	243	31
413	-431	194	286	31
295	-241	-93	-20	31
-5	148	-54	309	31
68	327	-120	194	31
-44	246	-282	-216	31
-122	239	-129	21	31
-29	16	-90	883	31
68	139	-126	1097	31
39	365	88	922	31
-181	794	345	-239	31
-137	1241	158	-2364	31
-242	1138	-27	-1262	31
-338	82	97	-151	31
-307	-1089	229	-1031	31
-291	-1182	392	-286	31
-95	-1418	423	74	31
112	-907	199	955	31
489	-22	-215	1282	31
393	-223	-494	586	31
-52	92	-209	6	31
-5	165	289	-651	31
4	474	459	-103	31
45	733	347	431	31
131	62	1	911	31
-20	484	-428	893	31
-21	1601	-611	-529	31
-195	1507	-668	-2111	31
-357	-856	-501	-1560	31
-189	-2125	-130	131	31
95	-1104	158	307	31
324	-446	204	-93	31
53	589	586	-557	31
-186	1339	875	167	31
-57	-67	279	545	31
179	-1714	20	-83	31
746	-1317	-112	201	31
927	-355	-340	636	31
316	-47	-413	568	31
92	768	-664	-259	31
82	267	-395	-799	31
9	-335	188	172	31
-12	430	360	1793	31
-230	660	208	836	31
-430	412	-80	-115	31
-702	-415	-261	146	31
-567	-295	-59	-1397	31
-68	440	244	-2247	31
41	215	178	-1025	31
-183	-21	-48	663	31
-67	-427	-32	1003	31
-68	-255	-59	967	31
-166	545	49	55	31
204	427	152	19	31
123	100	-108	1133	31
240	283	-151	1242	31
536	352	-63	1611	31
285	-129	208	1105	31
