File Name: not saved
Channel 1: 'EMG 1', 21004 values, raw ADC, no filters.
Channel 2: 'EMG 2', 21004 values, raw ADC, no filters.
Channel 3: 'EMG 3', 21004 values, raw ADC, no filters.
Channel 4: 'EMG 4', 21004 values, raw ADC, no filters.
Digitals combined (event=16, d=8, c=4, b=2, a=1): 21004 values, .

-4	-5	34	-113	31
-20	-20	-46	-868	31
-10	-14	-295	-257	31
12	4	-484	489	31
21	17	-472	-144	31
25	19	-268	-285	31
2	0	138	-349	31
-48	-32	421	-257	31
-52	-33	380	-540	31
-24	-14	255	-211	31
-7	-6	249	151	31
6	3	-32	306	31
6	3	-275	900	31
-8	-5	-283	800	31
-11	-4	-90	369	31
-9	-3	181	-302	31
-10	-5	152	-500	31
-7	-2	93	-36	31
4	6	-52	340	31
16	14	-32	-51	31
26	20	77	85	31
22	12	59	335	31
8	-2	-49	113	31
3	-4	-266	430	31
-12	-12	-174	-171	31
-36	-26	-41	-964	31
-25	-21	62	-490	31
-4	-7	110	35	31
-7	-1	41	-228	31
0	5	58	-276	31
0	5	36	84	31
-2	6	-11	231	31
4	10	-74	332	31
9	9	-54	42	31
15	9	-24	-107	31
7	1	11	48	31
-1	-4	46	272	31
-7	2	4	321	31
2	-2	-55	382	31
17	1	-101	327	31
16	6	-33	91	31
11	6	69	-29	31
-8	1	138	-1025	31
-20	-7	110	-818	31
-14	-3	-21	365	31
-5	2	-12	150	31
-1	2	-12	162	31
1	4	-52	-330	31
0	1	49	-644	31
0	0	103	121	31
-9	-4	119	163	31
-17	-10	32	133	31
-9	-1	-126	135	31
1	11	-92	61	31
4	11	-14	222	31
4	12	-16	363	31
2	14	-93	214	31
1	14	-78	26	31
-3	10	-14	146	31
-7	4	-113	-36	31
-4	6	-156	-198	31
-1	-7	-92	-300	31
-8	-27	113	-393	31
-13	-29	312	136	31
1	-18	289	506	31
9	-4	67	360	31
11	2	-103	454	31
10	-1	-153	546	31
-3	-2	-171	529	31
-7	-3	-17	291	31
-10	-1	25	-539	31
1	4	34	-957	31
12	4	44	-1004	31
8	4	32	-583	31
6	8	52	261	31
7	11	133	56	31
4	5	185	-72	31
-15	-3	44	-180	31
-21	-4	-53	-261	31
-17	-4	-209	67	31
-14	2	-284	151	31
-6	11	-148	170	31
-4	2	-11	-173	31
-4	-12	22	-155	31
-3	-21	-47	-46	31
-1	-17	-2	92	31
16	1	48	345	31
24	8	-95	673	31
15	11	-94	1083	31
11	7	102	662	31
-1	-3	260	-379	31
-10	-4	179	-970	31
-21	-11	-53	-518	31
-25	-12	21	-193	31
-16	-4	69	196	31
-11	-1	11	-35	31
1	6	140	-625	31
5	11	113	-264	31
6	13	44	135	31
4	9	-31	345	31
-9	-1	-171	-351	31
-11	-5	-198	-592	31
-2	-6	14	-77	31
15	2	134	267	31
6	0	24	533	31
-21	-19	4	840	31
-21	-19	-37	491	31
-8	-4	-62	319	31
-6	0	-155	-17	31
-5	1	-56	-1010	31
1	2	50	-174	31
-5	0	-118	27	31
-5	1	-17	-112	31
1	4	90	102	31
-2	1	-30	-384	31
2	2	-108	-35	31
8	6	39	17	31
5	1	151	83	31
5	2	147	115	31
6	2	81	-189	31
-4	-4	-123	99	31
-4	-2	-130	123	31
1	3	-77	79	31
1	6	-82	113	31
3	8	-22	20	31
-2	2	24	25	31
-3	1	33	92	31
-2	1	-64	108	31
2	1	-161	-49	31
4	2	-95	-95	31
-1	-2	143	9	31
-17	-15	287	203	31
-36	-24	140	67	31
-25	-8	-28	-83	31
-5	4	-12	34	31
8	6	22	-178	31
19	6	115	-193	31
22	1	176	-137	31
21	5	65	52	31
9	6	-84	472	31
6	7	-265	502	31
12	9	-335	504	31
3	2	-215	319	31
-5	-7	-2	-47	31
-3	-14	84	-211	31
-1	-16	112	-930	31
2	-10	186	-764	31
-1	-1	178	133	31
-21	-14	161	-383	31
-23	-16	84	-85	31
-8	-4	-90	641	31
-7	0	-232	332	31
4	9	-127	-207	31
-6	1	60	-669	31
-21	-11	52	-179	31
-16	-11	-58	46	31
-13	-11	-40	-90	31
-2	-8	146	286	31
9	-4	-3	108	31
8	-4	-206	-86	31
-1	-7	-110	-112	31
-2	2	32	-38	31
-3	9	136	57	31
4	17	53	32	31
7	27	9	231	31
5	36	-39	279	31
12	43	-15	344	31
7	26	179	-133	31
6	12	219	-580	31
1	7	18	-247	31
-7	-1	-200	-163	31
-7	8	-98	54	31
-2	5	-29	389	31
2	-28	-83	119	31
-1	-51	-2	155	31
1	-42	60	476	31
2	-26	68	174	31
-5	-25	-8	-72	31
-6	-31	-117	-30	31
0	-20	-202	37	31
1	1	-194	528	31
5	14	-90	717	31
-1	16	42	309	31
-8	13	223	-736	31
-6	10	256	-1094	31
-3	12	-14	58	31
4	11	-210	277	31
11	18	-75	-59	31
12	19	35	-338	31
5	10	203	-428	31
8	16	303	577	31
3	6	94	756	31
-16	-6	-71	-118	31
-12	-2	9	-880	31
-11	-2	105	-1040	31
-6	0	-4	-229	31
-4	-1	-84	-2	31
-11	-2	-57	-3	31
-5	3	27	90	31
-5	2	-42	-497	31
-7	0	-150	-269	31
-9	0	-141	173	31
-18	-7	74	476	31
-14	-6	234	441	31
-9	-2	5	-36	31
-12	-7	-101	366	31
7	4	-66	320	31
14	8	-48	74	31
10	-6	-37	264	31
6	-12	-120	468	31
7	-7	-93	458	31
21	-4	-26	310	31
2	-15	-107	223	31
-7	-9	-133	-240	31
-9	-1	-21	-414	31
-18	-6	163	-927	31
-8	-8	302	-812	31
0	-9	206	131	31
3	-8	74	165	31
2	-6	-17	126	31
6	-1	-119	112	31
6	4	-145	-156	31
2	3	-80	-57	31
3	2	-42	504	31
-1	5	-96	647	31
-2	14	-39	315	31
-2	39	38	-430	31
-3	52	139	-705	31
-4	29	155	-218	31
-3	0	-30	-5	31
-3	-33	-150	425	31
3	-61	-79	722	31
1	-67	100	559	31
1	-44	161	-491	31
17	-14	98	-728	31
7	-7	37	-120	31
-3	2	4	-44	31
-9	7	-204	335	31
-31	-4	-323	-458	31
-21	3	-47	-919	31
-6	6	188	-398	31
-17	-11	178	-388	31
-21	-19	230	-228	31
-19	-12	39	786	31
-3	6	-214	1547	31
17	14	-131	1130	31
0	4	-77	464	31
-14	-2	106	-1112	31
-14	-9	223	-1375	31
-5	1	61	-14	31
-1	-1	-66	-77	31
-17	-16	-115	-101	31
-4	-2	-105	-41	31
4	6	-42	272	31
7	12	-102	618	31
19	23	-81	215	31
16	17	109	-199	31
22	17	166	-87	31
27	21	7	729	31
21	22	-211	711	31
12	19	-229	360	31
-1	4	14	-645	31
-15	-11	338	-1048	31
-20	-21	176	-511	31
-16	-21	-96	-359	31
-8	-14	-28	-277	31
-6	-14	182	-786	31
-11	-11	254	16	31
-8	-4	-1	98	31
-6	-1	-82	-151	31
8	10	-230	396	31
14	14	-220	228	31
6	5	198	261	31
-1	-6	294	168	31
-24	-16	50	953	31
-14	-1	-262	1171	31
22	22	-324	962	31
21	16	-141	678	31
-1	-8	-22	-224	31
-15	-26	133	-538	31
-13	-17	287	-692	31
-26	-21	261	-1443	31
-31	-26	153	-1001	31
-6	-6	-164	239	31
2	2	-424	-133	31
2	9	-246	-44	31
11	19	-57	-169	31
17	25	-67	466	31
30	33	-137	1570	31
29	31	-173	1219	31
6	2	-93	636	31
-29	-34	107	-1513	31
-48	-45	561	-2174	31
-16	-21	724	-233	31
21	5	262	158	31
24	14	2	383	31
18	16	-260	545	31
6	9	-299	-380	31
-1	2	-16	-55	31
-20	-12	-253	272	31
-37	-23	-290	640	31
-21	-14	-6	79	31
-10	-12	106	-701	31
-7	-15	39	65	31
3	-2	-170	473	31
7	6	-66	574	31
20	19	67	251	31
13	22	-4	-700	31
-10	14	58	-625	31
-18	5	58	-39	31
-13	-1	125	-36	31
-3	-1	240	312	31
-2	-3	257	348	31
6	0	143	123	31
6	-5	-52	325	31
7	-2	-261	454	31
11	4	-264	243	31
6	-6	-9	-319	31
6	-4	-125	-593	31
3	4	-198	-160	31
7	21	10	365	31
5	64	49	164	31
-9	92	-42	1	31
-15	66	-77	-322	31
-17	21	-21	-772	31
-30	-49	-2	-1122	31
-34	-120	-31	-628	31
-11	-115	-127	724	31
29	-57	8	950	31
72	-9	16	1072	31
82	25	-95	693	31
63	36	166	-228	31
-2	1	240	-1074	31
-59	-30	388	-972	31
-51	-23	110	-94	31
-46	-24	-352	-213	31
-14	-6	-183	-101	31
-8	-3	-116	-443	31
-50	-32	313	-517	31
-27	-14	451	-260	31
-9	25	144	-82	31
-12	72	-29	249	31
-9	105	-280	460	31
-9	85	-114	684	31
4	30	88	236	31
14	-41	197	81	31
19	-102	261	-44	31
32	-95	97	7	31
31	-29	-2	-92	31
17	-16	280	40	31
13	-6	606	534	31
9	21	310	127	31
-9	7	-272	-380	31
-18	16	-1194	60	31
-13	17	-1567	1068	31
-9	13	-360	914	31
-12	2	138	578	31
-6	-11	-147	224	31
1	6	-203	61	31
11	12	-378	-85	31
21	17	32	-687	31
-5	4	451	-1353	31
-32	-12	684	-1740	31
-17	2	436	47	31
-7	14	-41	1217	31
-8	1	-65	1062	31
-18	-25	-31	-420	31
-24	-36	246	-1816	31
-6	-21	368	-108	31
25	9	276	1243	31
33	14	254	797	31
-5	-5	223	-604	31
-33	-21	255	-1598	31
-24	-13	83	-792	31
-7	9	-254	229	31
5	41	-221	371	31
-4	49	-77	229	31
1	41	-56	-62	31
3	28	-216	-45	31
-5	-9	-463	320	31
9	-29	-206	125	31
12	-30	39	453	31
6	-31	167	361	31
-9	-41	160	-146	31
-16	-37	-100	273	31
-15	-9	-44	145	31
-7	10	85	-29	31
12	37	110	109	31
23	56	79	42	31
21	126	-39	95	31
-11	260	-56	39	31
-39	267	-24	20	31
-39	125	-100	-54	31
-31	-59	-135	-174	31
-4	-278	-52	-38	31
42	-382	-50	249	31
77	-229	69	422	31
61	-44	267	426	31
11	-18	221	268	31
-1	4	47	122	31
9	0	-333	-132	31
2	-64	-500	-627	31
10	-47	-217	-580	31
25	-18	-64	-27	31
7	-29	21	535	31
-6	-7	171	525	31
-2	45	192	-95	31
-10	59	173	-420	31
-14	50	198	-57	31
-17	39	158	-388	31
-21	22	110	-497	31
-31	13	164	-339	31
-42	-2	196	-640	31
-28	11	-46	-166	31
-11	18	-406	-310	31
-1	-4	-313	-73	31
6	-22	-41	400	31
14	-25	54	511	31
16	7	247	642	31
9	22	243	572	31
7	21	43	492	31
7	31	-240	658	31
-2	22	-465	792	31
-11	23	-170	-88	31
-9	20	218	-1191	31
-11	16	350	-1427	31
-11	19	196	27	31
-11	14	-115	89	31
-24	0	-326	-200	31
-26	-4	-262	37	31
-15	-1	-5	-420	31
-26	-15	105	-239	31
-7	1	144	-304	31
9	22	130	47	31
-10	17	36	277	31
-4	24	-102	371	31
11	15	-117	403	31
22	11	-4	558	31
19	9	40	607	31
9	-2	67	136	31
14	6	29	-418	31
10	7	-57	-618	31
19	13	44	232	31
38	29	122	497	31
27	22	-229	1078	31
-5	-6	-256	1143	31
-34	-30	160	-595	31
-50	-39	411	-1775	31
-44	-37	375	-1212	31
-17	-22	-47	-332	31
4	0	-287	30	31
4	4	-222	474	31
-4	-7	-107	269	31
-2	-16	125	196	31
-7	-19	204	68	31
-7	-12	-173	187	31
-1	-2	-506	13	31
-3	1	-245	-739	31
-9	-4	168	-511	31
-6	-4	342	-311	31
9	2	323	219	31
12	7	130	291	31
24	15	-72	-64	31
32	10	-250	-156	31
7	-6	-201	-206	31
-17	-17	-75	1039	31
-41	-27	37	1694	31
-19	-11	306	535	31
1	1	235	-557	31
-9	-5	45	-754	31
1	7	-155	-420	31
-4	4	-257	-118	31
5	6	-148	31	31
-1	4	9	-393	31
-7	3	135	-334	31
1	7	100	-1	31
-3	-1	182	-85	31
7	3	123	532	31
3	-1	12	292	31
2	-4	-65	-137	31
7	7	-95	-40	31
7	12	-59	112	31
6	21	-69	128	31
-1	49	-42	-340	31
-2	97	-88	-260	31
-10	113	1	292	31
-16	70	104	865	31
-17	-6	152	780	31
-7	-90	37	558	31
2	-158	-113	-499	31
11	-128	-84	-1159	31
31	-45	-113	-84	31
29	-37	-24	-156	31
12	-24	24	-240	31
-6	-17	21	193	31
-2	-10	72	-481	31
11	19	116	-587	31
9	14	39	32	31
0	27	-92	-544	31
-7	44	-156	-432	31
-1	48	-79	210	31
-7	19	259	577	31
-17	-14	174	1139	31
-12	-31	6	157	31
-9	-50	-28	-63	31
-9	-37	-31	177	31
-8	-16	410	-405	31
-15	-10	417	-223	31
-24	-7	59	-529	31
-25	-2	-424	-440	31
-24	1	-568	160	31
-11	11	-87	-9	31
-4	22	-158	133	31
0	24	-166	228	31
3	22	-57	236	31
-1	16	-45	77	31
7	16	90	143	31
21	22	21	421	31
32	35	-83	685	31
31	37	-342	1198	31
24	29	-335	900	31
11	15	-21	-73	31
-6	1	261	-1298	31
-16	-4	178	-1302	31
-19	-7	50	-173	31
-19	-14	175	-849	31
-35	-28	499	-1775	31
-46	-47	492	-33	31
-31	-42	-106	832	31
-6	-13	-207	239	31
5	-2	-47	430	31
12	4	25	368	31
11	14	-32	250	31
12	16	-67	302	31
12	12	-23	506	31
14	4	6	579	31
15	-3	97	450	31
10	-5	32	252	31
12	4	-40	4	31
10	15	-69	-221	31
-1	8	4	-533	31
-5	-1	-28	-858	31
0	2	-194	-311	31
-15	-8	-113	238	31
-15	-9	14	223	31
-2	-2	117	323	31
3	-1	205	-12	31
16	10	-107	98	31
7	4	-278	204	31
-8	-2	-211	446	31
-17	-7	-104	-6	31
-33	-19	212	-1437	31
-33	-20	131	-1043	31
-26	-15	49	-667	31
-10	1	137	-465	31
15	14	8	489	31
12	9	4	684	31
11	7	7	463	31
9	1	77	-223	31
-12	-21	137	35	31
-14	-27	14	332	31
2	-10	30	-474	31
7	-9	82	-1	31
7	-14	-22	214	31
6	-3	-177	-44	31
12	9	-299	375	31
24	12	-170	628	31
15	4	75	792	31
-6	-9	92	72	31
-17	-12	7	-67	31
-14	-11	-4	-234	31
-12	-6	66	-744	31
-3	4	146	-108	31
8	10	133	201	31
0	2	85	398	31
-2	-1	-64	28	31
-4	1	-170	-312	31
-9	-6	-64	-229	31
-1	-1	-68	-2	31
2	1	-105	294	31
4	2	-54	-187	31
12	10	5	136	31
13	14	95	264	31
19	25	228	-277	31
31	29	318	-37	31
5	11	75	749	31
-31	-10	-350	636	31
-38	-14	-582	-600	31
-35	-17	-404	-776	31
-27	-15	-80	-500	31
-33	-19	14	134	31
-19	-10	103	-98	31
4	0	283	-574	31
-13	-14	358	300	31
2	1	204	379	31
4	3	-2	17	31
-9	-9	52	-674	31
-3	-4	124	-273	31
0	-1	93	266	31
15	11	23	329	31
8	10	-113	150	31
0	6	-132	57	31
2	8	-82	635	31
16	19	-76	739	31
32	30	-106	555	31
18	22	3	-242	31
-6	3	229	-880	31
-35	-18	236	-607	31
-26	-19	162	251	31
0	-11	78	124	31
4	-13	-47	-170	31
7	-14	-163	-380	31
3	-12	-283	-640	31
0	-6	-307	-297	31
9	4	-221	299	31
18	12	27	779	31
23	17	123	803	31
10	12	27	705	31
-16	-5	-110	-95	31
-19	-11	-21	-1003	31
-11	-9	270	-904	31
-16	-14	148	106	31
-17	-17	35	198	31
-6	-5	117	382	31
6	8	70	304	31
5	9	-43	-356	31
2	4	-168	-49	31
-3	-2	-96	-82	31
-12	-6	112	-484	31
-17	-10	177	-435	31
-9	-2	43	295	31
14	13	-6	362	31
18	15	39	309	31
14	17	3	193	31
11	15	-105	-76	31
1	8	-298	78	31
0	2	-335	-217	31
-3	-9	-75	-236	31
-1	-9	193	105	31
1	-16	151	536	31
-12	-22	-122	-127	31
-19	-20	-280	-241	31
-34	-27	-68	183	31
-36	-19	247	-441	31
-15	0	322	142	31
-7	-1	292	37	31
-3	0	300	-200	31
12	6	126	348	31
18	9	-113	298	31
12	9	-383	620	31
25	27	-518	723	31
36	31	-193	574	31
18	7	140	69	31
-13	-21	376	-1079	31
-32	-32	357	-1807	31
-17	-11	147	-789	31
-5	-4	-64	-80	31
-4	1	-378	194	31
2	8	-322	841	31
3	11	-5	916	31
17	45	142	799	31
20	67	57	-149	31
13	48	-198	-484	31
-5	11	-330	-880	31
-40	-37	-105	-924	31
-41	-67	206	-149	31
-27	-75	284	-595	31
-22	-56	330	-307	31
-4	-10	253	110	31
-4	4	119	174	31
-4	6	-76	385	31
3	10	-133	160	31
-3	-2	18	539	31
13	3	-144	1093	31
23	2	-216	1371	31
21	2	-217	916	31
12	2	-77	-510	31
2	-12	-26	-940	31
4	-7	-203	240	31
11	11	-6	-317	31
3	9	160	-805	31
1	9	190	114	31
10	12	78	-719	31
-3	4	42	-617	31
-14	-1	143	192	31
-16	1	202	-75	31
-12	9	214	-219	31
-7	9	134	-289	31
-13	6	102	276	31
-6	9	-27	406	31
-4	4	-55	327	31
-7	-2	-133	101	31
-1	-9	-261	-244	31
-2	-16	-75	265	31
5	-9	42	103	31
8	1	-62	55	31
3	7	-92	217	31
-2	11	-21	427	31
-3	5	233	667	31
14	14	409	512	31
22	25	191	409	31
17	34	-274	61	31
8	42	-888	-373	31
-18	21	-789	-1093	31
-45	-19	-95	-913	31
-44	-52	185	-552	31
-26	-72	115	-582	31
-5	-66	87	588	31
21	-26	241	1548	31
27	4	296	1199	31
2	-3	351	-405	31
-14	-6	196	-1159	31
-13	-2	-213	-535	31
-9	2	-371	-1129	31
-13	3	-214	-829	31
-13	-1	37	-450	31
2	12	128	31	31
1	16	198	324	31
0	23	229	-346	31
9	31	8	442	31
13	20	-266	363	31
24	12	-180	211	31
29	6	55	217	31
24	-5	212	246	31
5	-12	338	863	31
-10	-6	283	555	31
-13	1	203	-143	31
-35	3	-231	-653	31
-36	8	-543	-326	31
-21	1	-149	243	31
-16	-8	50	101	31
-6	-6	-36	315	31
5	-7	-52	532	31
12	-3	-6	483	31
18	8	1	731	31
21	12	-127	458	31
13	4	-156	-71	31
-4	-7	-103	-318	31
-18	-20	74	-1302	31
-27	-24	207	-1487	31
-11	12	118	15	31
11	68	126	243	31
6	100	50	37	31
1	93	-85	-94	31
-26	1	-280	183	31
-37	-100	-304	890	31
-7	-142	141	181	31
1	-142	502	-552	31
-2	-54	682	-694	31
0	22	354	-185	31
-3	51	-38	413	31
8	60	-123	572	31
21	27	-286	492	31
19	26	-296	-50	31
9	9	-206	-387	31
-1	-28	-4	32	31
0	-30	173	148	31
6	-19	366	-547	31
10	-23	287	-153	31
9	-16	-48	137	31
2	22	-334	-36	31
4	46	-537	844	31
16	54	-126	770	31
29	17	84	373	31
22	-38	39	181	31
-4	-56	158	-424	31
-16	-44	-89	-728	31
-7	-28	-214	-643	31
-11	-41	-178	-236	31
-28	-37	70	79	31
-28	-14	132	437	31
-6	-3	-96	306	31
1	5	-52	146	31
-9	4	-19	-63	31
-12	27	227	-676	31
-17	75	137	-546	31
-19	106	-134	-77	31
-27	87	-84	-136	31
-30	14	-236	-9	31
-14	-74	44	-45	31
4	-117	203	86	31
29	-69	-47	100	31
31	9	-152	-290	31
21	19	-289	301	31
10	10	-165	517	31
1	6	-64	569	31
-1	-17	20	110	31
-6	-14	161	-307	31
2	12	32	111	31
10	27	-154	211	31
11	27	77	338	31
6	24	491	-180	31
-9	11	563	-36	31
-11	2	136	174	31
-7	7	-235	-537	31
-6	5	-89	-405	31
-7	4	-47	-250	31
-12	7	-318	-274	31
-19	3	-264	-532	31
-19	-1	224	123	31
-19	-1	224	123	31
-19	-1	215	130	31
-19	-1	205	137	31
-19	-1	195	144	31
-18	-1	185	151	31
-18	0	175	159	31
-18	0	165	166	31
-17	0	155	173	31
-17	0	145	180	31
-17	0	135	187	31
-16	1	125	195	31
-16	1	115	202	31
-16	1	105	209	31
-16	1	95	216	31
-15	1	85	224	31
-15	2	75	231	31
-15	2	65	238	31
-14	2	55	245	31
-14	2	45	252	31
-14	2	35	260	31
-13	3	25	267	31
-13	3	15	274	31
-13	3	5	281	31
-13	3	-5	288	31
-12	3	-15	296	31
-12	4	-25	303	31
-12	4	-35	310	31
-11	4	-45	317	31
-11	4	-55	325	31
-11	4	-65	332	31
-10	5	-75	339	31
-10	5	-85	346	31
-10	5	-95	353	31
-10	5	-105	361	31
-9	5	-115	368	31
-9	6	-125	375	31
-9	6	-135	382	31
-8	6	-145	390	31
-8	6	-155	397	31
-8	6	-165	404	31
-7	7	-175	411	31
-7	7	-185	418	31
-7	7	-195	426	31
-7	7	-205	433	31
-6	7	-215	440	31
-6	8	-225	447	31
-6	8	-235	454	31
-5	8	-245	462	31
-5	8	-255	469	31
-5	8	-265	476	31
-4	9	-275	483	31
-4	9	-285	491	31
-4	9	-295	498	31
-4	9	-305	505	31
-3	9	-315	512	31
-3	10	-325	519	31
-3	10	-335	527	31
-2	10	-345	534	31
-2	10	-355	541	31
-2	10	-365	548	31
-1	11	-375	556	31
2	11	-213	227	31
-8	6	33	-272	31
-17	40	97	-117	31
-19	106	-11	-326	31
-32	128	-56	-454	31
-28	86	-25	-61	31
-9	-12	82	122	31
7	-121	66	31	31
16	-191	12	-65	31
22	-147	-1	-125	31
24	-75	-8	-55	31
17	-45	-22	198	31
7	-8	-60	244	31
9	5	-128	317	31
25	31	-165	185	31
25	45	-118	209	31
7	36	96	314	31
-16	21	425	161	31
-27	-1	408	-85	31
-18	4	79	-480	31
-9	3	-275	-152	31
-2	8	-445	-281	31
4	11	-356	-145	31
-2	5	-27	477	31
-20	0	328	-91	31
-28	-6	396	426	31
-9	11	182	913	31
-3	6	-88	-180	31
-18	-9	-309	-1656	31
-22	-11	-235	-1899	31
-29	-19	39	-336	31
-28	-10	48	171	31
-4	4	14	418	31
19	14	83	322	31
27	17	390	-64	31
17	-2	415	-154	31
1	-11	41	-1	31
-2	-4	-336	824	31
6	-1	-406	388	31
16	8	-37	321	31
14	12	-13	148	31
6	7	-179	-368	31
6	5	-365	111	31
8	6	-350	458	31
-9	-2	136	411	31
-21	-9	322	-105	31
-11	-1	60	-284	31
-3	6	-22	-21	31
-7	2	-78	395	31
-8	3	-27	528	31
-4	4	190	-47	31
-4	-4	168	-608	31
5	-1	136	-355	31
3	-2	87	-155	31
-6	-8	39	-247	31
-7	-6	-45	182	31
-1	-4	-108	461	31
12	4	-7	635	31
12	6	92	16	31
9	3	121	-448	31
9	4	92	-425	31
12	2	11	-362	31
-2	-8	-95	330	31
-24	-14	-218	473	31
-20	-2	-172	240	31
3	15	75	610	31
17	25	65	599	31
-1	12	42	-902	31
-20	-13	20	-1328	31
-9	-14	-107	378	31
16	5	-179	1106	31
15	3	-98	60	31
-18	-28	135	-1551	31
-39	-41	277	-1242	31
-37	-34	203	148	31
-33	-22	86	-532	31
-17	14	57	-39	31
6	46	-62	92	31
12	45	62	-166	31
13	22	59	530	31
6	-10	0	204	31
1	-36	-60	540	31
1	-44	-112	340	31
9	-26	28	84	31
16	-2	-77	-236	31
15	6	-72	-207	31
21	12	-2	225	31
30	26	120	345	31
13	33	102	852	31
-2	31	-173	645	31
4	17	-312	-151	31
-2	1	-135	-745	31
-12	-17	60	-537	31
-22	-43	1	-332	31
-14	-45	-1	143	31
2	-14	37	190	31
-10	-6	80	-100	31
-7	-10	94	243	31
-1	4	132	278	31
-2	8	112	215	31
-7	7	17	-160	31
-8	9	-116	-365	31
-1	16	-339	95	31
5	17	-368	444	31
21	18	-305	475	31
16	18	-219	756	31
4	10	97	522	31
-7	8	423	-487	31
-12	7	566	-1248	31
-19	-3	474	-890	31
-31	-14	228	-337	31
-12	-14	16	-251	31
-7	-9	-113	-64	31
-12	-6	-284	-590	31
-16	-7	-426	-441	31
-13	-8	-148	330	31
-2	-5	-5	100	31
-6	-6	-130	190	31
4	2	26	353	31
3	42	178	-82	31
2	105	298	118	31
13	127	237	539	31
9	79	-17	840	31
3	-9	-247	929	31
-6	-103	-300	6	31
-6	-153	-187	-686	31
8	-105	-98	-344	31
22	-41	17	300	31
18	-19	75	135	31
9	2	289	-476	31
4	-11	291	-41	31
-11	-16	110	-38	31
-9	-1	-131	-151	31
-11	-4	-356	144	31
-16	5	-303	27	31
-2	11	-188	304	31
-7	11	47	201	31
-18	1	28	92	31
-5	0	-78	211	31
9	4	-79	-263	31
9	9	34	-41	31
7	4	249	-383	31
-14	-14	413	-1414	31
-22	-6	444	-444	31
-5	14	197	164	31
-12	34	102	365	31
-14	51	-59	776	31
-5	54	-218	64	31
-5	69	-127	-632	31
-14	93	71	-677	31
-34	89	57	-52	31
-42	57	-236	143	31
-41	6	-190	141	31
-17	-67	-89	167	31
18	-148	7	72	31
49	-172	34	266	31
72	-132	22	327	31
78	-75	88	562	31
54	-16	-5	486	31
17	1	37	234	31
6	4	-72	13	31
-5	4	-36	-767	31
-16	-6	93	-513	31
2	22	100	370	31
16	36	407	673	31
13	27	417	483	31
-4	16	106	-175	31
-24	-1	-350	128	31
-31	-1	-685	-68	31
-32	10	-613	-406	31
-29	18	-310	-146	31
-31	12	17	-436	31
-33	0	-29	304	31
-16	1	64	457	31
-7	2	221	-807	31
-8	41	203	-1131	31
-21	201	112	-257	31
-62	422	63	288	31
-87	475	61	727	31
-100	411	-132	466	31
-130	277	-77	-473	31
-105	-29	-34	-522	31
-39	-208	-21	-117	31
42	-254	82	408	31
120	-492	82	458	31
163	-682	77	17	31
218	-551	41	-315	31
222	-430	27	82	31
145	-249	-92	436	31
52	35	-144	377	31
-11	100	-64	-325	31
-42	189	42	-881	31
-51	131	113	325	31
-39	-26	47	820	31
-16	11	-52	916	31
21	19	-40	827	31
34	4	256	-577	31
-21	35	322	-789	31
-87	123	2	-857	31
-84	168	-69	-916	31
-50	98	109	-155	31
-15	1	-24	22	31
9	-59	-188	122	31
0	14	-4	347	31
-51	243	-14	305	31
-120	692	-98	-200	31
-221	1289	-133	-196	31
-329	1317	-103	110	31
-281	478	74	70	31
-139	-512	63	178	31
61	-1350	108	315	31
306	-1832	161	334	31
461	-1225	-4	62	31
468	-350	-97	-97	31
285	-335	-9	-211	31
112	-212	116	-252	31
68	24	-38	-46	31
70	-37	-241	34	31
26	184	-333	170	31
-72	353	-179	223	31
-101	428	-9	259	31
-105	313	-100	196	31
-84	-98	-17	-148	31
-29	-216	49	-77	31
2	-62	180	166	31
26	55	256	-102	31
-6	88	145	17	31
-53	132	2	228	31
-65	147	-179	-77	31
-70	139	-229	-178	31
-63	144	2	-229	31
-50	120	211	181	31
-44	113	145	464	31
-31	110	204	-20	31
-29	181	186	-409	31
-97	570	51	-347	31
-239	1367	-119	-33	31
-380	1771	-77	-688	31
-406	1217	61	-1298	31
-287	-140	-128	-439	31
-2	-1856	-148	298	31
343	-2166	70	524	31
521	-1102	231	539	31
420	-224	88	731	31
115	229	-145	660	31
-128	769	-281	307	31
-283	1305	-238	191	31
-406	1400	-12	-200	31
-401	883	13	-401	31
-312	398	37	-461	31
-73	-406	94	-163	31
277	-1195	90	-19	31
491	-1419	128	-44	31
648	-1950	125	87	31
661	-1651	69	74	31
446	-165	-64	317	31
222	938	-151	556	31
-90	1679	-206	932	31
-461	2072	-164	827	31
-635	1576	149	-229	31
-543	389	239	-1208	31
-324	-117	72	-1092	31
0	-464	-68	-524	31
391	-1525	-186	-96	31
575	-2101	-179	158	31
578	-1944	-178	537	31
490	-1350	-268	1018	31
385	-481	-106	198	31
207	97	396	97	31
-32	281	628	360	31
-109	366	489	-1444	31
-208	352	3	-1932	31
-252	308	-354	-1060	31
-211	335	-193	-837	31
-196	313	49	-242	31
-163	324	100	604	31
-182	285	-93	1057	31
-164	256	11	712	31
-127	231	319	262	31
-100	166	277	519	31
-89	176	-70	688	31
-90	146	-332	382	31
-68	115	-138	150	31
-59	105	185	161	31
-45	94	87	118	31
-32	117	-332	219	31
-32	89	-448	287	31
-34	44	-185	75	31
-28	-6	-156	-121	31
-28	-6	-156	-121	31
-31	13	-155	-125	31
-35	33	-154	-129	31
-39	53	-152	-134	31
-42	73	-151	-138	31
-46	93	-149	-143	31
-50	113	-148	-147	31
-54	133	-146	-152	31
-57	153	-145	-156	31
-61	173	-143	-161	31
-65	193	-142	-165	31
-69	212	-140	-170	31
-72	232	-139	-174	31
-76	252	-137	-179	31
-80	272	-136	-183	31
-84	292	-134	-188	31
-87	312	-133	-192	31
-91	332	-131	-197	31
-95	352	-130	-201	31
-98	372	-128	-206	31
-102	392	-127	-210	31
-106	411	-125	-215	31
-110	431	-124	-219	31
-113	451	-122	-224	31
-117	471	-121	-228	31
-121	491	-119	-233	31
-125	511	-118	-237	31
-128	531	-116	-242	31
-132	551	-115	-246	31
-136	571	-113	-251	31
-140	591	-112	-255	31
-143	610	-111	-259	31
-147	630	-109	-264	31
-151	650	-108	-268	31
-154	670	-106	-273	31
-158	690	-105	-277	31
-162	710	-103	-282	31
-166	730	-102	-286	31
-169	750	-100	-291	31
-173	770	-99	-295	31
-177	790	-97	-300	31
-181	809	-96	-304	31
-184	829	-94	-309	31
-188	849	-93	-313	31
-192	869	-91	-318	31
-196	889	-90	-322	31
-199	909	-88	-327	31
-203	929	-87	-331	31
-207	949	-85	-336	31
-210	969	-84	-340	31
-214	989	-82	-345	31
-218	1008	-81	-349	31
-222	1028	-79	-354	31
-225	1048	-78	-358	31
-229	1068	-76	-363	31
-233	1088	-75	-367	31
-237	1108	-73	-372	31
-240	1128	-72	-376	31
-244	1148	-70	-381	31
-248	1168	-69	-385	31
-252	1188	-67	-390	31
-461	1957	60	-800	31
-622	1725	326	-262	31
-604	779	447	151	31
-360	-1022	261	111	31
-2	-2297	-20	-90	31
270	-2178	-444	-174	31
407	-1742	-352	-247	31
433	-1407	36	154	31
372	-1101	160	440	31
169	-234	-117	742	31
12	184	-300	226	31
-78	45	-91	-370	31
-130	42	-84	192	31
-90	113	208	-202	31
-84	555	261	-425	31
-7	287	15	-3	31
-1	-95	-31	45	31
-12	127	-4	274	31
-2	155	-16	549	31
-151	240	-289	575	31
-272	314	-107	-153	31
-254	279	151	-873	31
-172	705	288	-443	31
-150	1618	185	36	31
-199	1764	-49	264	31
-204	590	-9	946	31
49	-1562	-64	416	31
381	-2137	-74	-616	31
519	-1256	-67	-885	31
495	-456	-43	-568	31
231	43	215	-314	31
-6	328	548	-487	31
-102	390	530	-279	31
-250	1047	76	-195	31
-356	1459	-371	369	31
-317	1346	-629	340	31
-115	170	-658	-91	31
175	-1207	-448	-94	31
418	-1139	-187	402	31
448	-284	209	805	31
209	-131	467	471	31
-98	-197	385	451	31
-214	-263	144	-238	31
-155	-351	-318	-501	31
-79	-55	-834	-620	31
-77	-84	-666	-520	31
-77	77	42	112	31
-90	436	560	165	31
-161	735	546	682	31
-189	941	-44	879	31
-183	565	-342	1189	31
-44	-207	-292	1029	31
166	-980	322	-668	31
219	-1057	748	-1577	31
140	-502	469	-1057	31
48	112	289	-709	31
-48	114	-49	-295	31
-52	-180	43	-347	31
31	-262	238	-342	31
71	-169	84	-21	31
26	122	-84	-11	31
-70	120	-174	457	31
-74	105	-85	263	31
-45	70	-36	276	31
-46	79	-29	393	31
-32	365	-102	397	31
-117	1206	-179	565	31
-293	2054	-209	454	31
-316	1425	-131	309	31
-134	-559	-66	-344	31
194	-2144	-41	-271	31
433	-1564	153	226	31
395	-64	282	10	31
204	-87	190	-15	31
-112	95	-93	-240	31
-143	-180	-434	-295	31
-14	-377	-523	-168	31
-14	53	-155	-592	31
11	192	232	-103	31
-124	1099	154	173	31
-244	1783	113	-448	31
-373	1770	156	-560	31
-424	1174	282	8	31
-302	558	250	756	31
-67	302	-65	807	31
279	-925	-65	619	31
391	-2281	-55	204	31
464	-2140	11	-38	31
550	-1087	-116	-117	31
431	-595	-378	-299	31
269	-415	-285	-313	31
165	-280	-77	-330	31
87	-125	273	-23	31
27	226	309	-22	31
-48	219	116	-44	31
-153	284	-224	609	31
-171	222	-459	827	31
-133	108	-113	336	31
-86	107	240	-48	31
-94	37	266	-764	31
-107	249	184	-861	31
-136	615	148	-768	31
-200	756	-17	-578	31
-173	163	-160	330	31
-104	-651	-209	401	31
65	-859	-247	654	31
143	-255	-260	213	31
41	146	-104	-819	31
-67	26	-7	-522	31
-59	44	106	216	31
6	-123	367	754	31
-55	824	213	768	31
-209	2053	347	408	31
-446	1797	438	-155	31
-493	485	184	-547	31
-49	-1614	141	-751	31
534	-2263	57	-566	31
670	-1905	161	338	31
436	-1783	-13	599	31
337	-1303	-24	267	31
252	-484	121	-520	31
15	-142	-153	-993	31
-4	285	-507	59	31
-12	359	-440	555	31
-78	647	-153	1199	31
-36	753	-74	764	31
-103	582	-37	-586	31
-111	179	-236	-87	31
-59	-248	-280	12	31
-79	-93	-236	-77	31
-100	62	94	-224	31
-141	145	443	-791	31
-140	-189	302	-223	31
-151	-401	-35	401	31
-186	62	-257	393	31
-74	227	-35	89	31
1	216	237	-426	31
32	312	290	-373	31
44	372	-44	-29	31
27	389	-290	492	31
118	79	-378	893	31
49	-344	-301	412	31
-11	-205	118	-420	31
83	126	189	-174	31
24	298	77	-172	31
-32	529	115	-728	31
-32	404	149	286	31
-57	176	107	343	31
18	-87	67	82	31
74	-99	45	-692	31
27	-19	34	-1199	31
-27	-359	-9	674	31
1	-181	42	876	31
54	-200	117	590	31
38	-238	247	212	31
16	-66	352	-531	31
-14	-179	236	-651	31
-12	43	131	-601	31
-21	14	-342	125	31
-21	14	-342	125	31
-19	6	-339	119	31
-16	-3	-335	112	31
-13	-12	-331	106	31
-10	-20	-327	99	31
-8	-29	-323	92	31
-5	-38	-319	86	31
-2	-46	-316	79	31
1	-55	-312	73	31
3	-64	-308	66	31
6	-73	-304	59	31
9	-81	-300	53	31
12	-90	-296	46	31
14	-99	-292	40	31
17	-107	-289	33	31
20	-116	-285	26	31
23	-125	-281	20	31
26	-133	-277	13	31
28	-142	-273	7	31
31	-151	-269	0	31
34	-160	-265	-7	31
37	-168	-262	-13	31
39	-177	-258	-20	31
42	-186	-254	-26	31
45	-194	-250	-33	31
48	-203	-246	-40	31
50	-212	-242	-46	31
53	-220	-239	-53	31
56	-229	-235	-59	31
59	-238	-231	-66	31
62	-247	-227	-73	31
64	-255	-223	-79	31
67	-264	-219	-86	31
70	-273	-215	-92	31
73	-281	-212	-99	31
75	-290	-208	-106	31
78	-299	-204	-112	31
81	-307	-200	-119	31
84	-316	-196	-125	31
86	-325	-192	-132	31
89	-334	-188	-139	31
92	-342	-185	-145	31
95	-351	-181	-152	31
97	-360	-177	-158	31
100	-368	-173	-165	31
103	-377	-169	-172	31
106	-386	-165	-178	31
109	-394	-162	-185	31
111	-403	-158	-191	31
114	-412	-154	-198	31
117	-421	-150	-205	31
120	-429	-146	-211	31
122	-438	-142	-218	31
125	-447	-138	-224	31
128	-455	-135	-231	31
131	-464	-131	-238	31
133	-473	-127	-244	31
136	-481	-123	-251	31
139	-490	-119	-257	31
142	-499	-115	-264	31
145	-508	-111	-271	31
54	-872	70	-1623	31
89	-910	381	-2093	31
77	-105	481	-1703	31
-4	540	638	-850	31
-52	600	480	64	31
-32	189	-107	34	31
137	-671	-667	530	31
186	-886	-696	584	31
179	-451	-201	696	31
158	57	335	823	31
-24	575	383	469	31
-223	714	115	580	31
-291	537	50	-20	31
-190	201	-168	377	31
-113	207	-605	1231	31
-39	765	-522	1341	31
-31	916	-98	1279	31
-41	-188	62	-102	31
70	-1330	236	-2151	31
70	-1330	236	-2151	31
70	-1323	236	-2142	31
70	-1315	235	-2133	31
70	-1307	234	-2124	31
69	-1299	233	-2115	31
69	-1291	232	-2105	31
69	-1283	231	-2096	31
68	-1276	230	-2087	31
68	-1268	229	-2078	31
68	-1260	228	-2068	31
67	-1252	227	-2059	31
67	-1244	226	-2050	31
67	-1236	225	-2041	31
66	-1228	224	-2032	31
66	-1221	223	-2022	31
66	-1213	222	-2013	31
65	-1205	221	-2004	31
65	-1197	220	-1995	31
65	-1189	219	-1985	31
64	-1181	218	-1976	31
64	-1173	217	-1967	31
64	-1166	217	-1958	31
63	-1158	216	-1949	31
63	-1150	215	-1939	31
63	-1142	214	-1930	31
62	-1134	213	-1921	31
62	-1126	212	-1912	31
62	-1118	211	-1902	31
61	-1111	210	-1893	31
61	-1103	209	-1884	31
61	-1095	208	-1875	31
60	-1087	207	-1865	31
60	-1079	206	-1856	31
60	-1071	205	-1847	31
59	-1063	204	-1838	31
59	-1056	203	-1829	31
59	-1048	202	-1819	31
58	-1040	201	-1810	31
58	-1032	200	-1801	31
58	-1024	199	-1792	31
57	-1016	198	-1782	31
57	-1008	197	-1773	31
57	-1001	197	-1764	31
56	-993	196	-1755	31
56	-985	195	-1746	31
56	-977	194	-1736	31
55	-969	193	-1727	31
55	-961	192	-1718	31
55	-953	191	-1709	31
55	-946	190	-1699	31
54	-938	189	-1690	31
54	-930	188	-1681	31
54	-922	187	-1672	31
53	-914	186	-1663	31
53	-906	185	-1653	31
53	-898	184	-1644	31
52	-891	183	-1635	31
52	-883	182	-1626	31
52	-875	181	-1616	31
51	-867	180	-1607	31
51	-859	179	-1598	31
51	-851	178	-1589	31
50	-843	177	-1579	31
50	-836	177	-1570	31
50	-828	176	-1561	31
49	-820	175	-1552	31
49	-812	174	-1543	31
49	-804	173	-1533	31
48	-796	172	-1524	31
48	-788	171	-1515	31
48	-781	170	-1506	31
47	-773	169	-1496	31
47	-765	168	-1487	31
47	-757	167	-1478	31
46	-749	166	-1469	31
46	-741	165	-1460	31
46	-733	164	-1450	31
45	-726	163	-1441	31
45	-718	162	-1432	31
45	-710	161	-1423	31
44	-702	160	-1413	31
44	-694	159	-1404	31
44	-686	158	-1395	31
43	-678	157	-1386	31
43	-671	157	-1377	31
43	-663	156	-1367	31
42	-655	155	-1358	31
42	-647	154	-1349	31
42	-639	153	-1340	31
41	-631	152	-1330	31
41	-623	151	-1321	31
41	-616	150	-1312	31
40	-608	149	-1303	31
40	-600	148	-1293	31
40	-592	147	-1284	31
40	-584	146	-1275	31
39	-576	145	-1266	31
39	-568	144	-1257	31
39	-561	143	-1247	31
38	-553	142	-1238	31
38	-545	141	-1229	31
38	-537	140	-1220	31
37	-529	139	-1210	31
37	-521	138	-1201	31
37	-513	137	-1192	31
36	-506	137	-1183	31
36	-498	136	-1174	31
36	-490	135	-1164	31
35	-482	134	-1155	31
35	-474	133	-1146	31
35	-466	132	-1137	31
34	-458	131	-1127	31
34	-451	130	-1118	31
34	-443	129	-1109	31
33	-435	128	-1100	31
33	-427	127	-1090	31
33	-419	126	-1081	31
32	-411	125	-1072	31
32	-403	124	-1063	31
32	-396	123	-1054	31
31	-388	122	-1044	31
31	-380	121	-1035	31
31	-372	120	-1026	31
30	-364	119	-1017	31
30	-356	118	-1007	31
30	-348	117	-998	31
29	-341	117	-989	31
29	-333	116	-980	31
29	-325	115	-971	31
28	-317	114	-961	31
28	-309	113	-952	31
28	-301	112	-943	31
27	-293	111	-934	31
27	-286	110	-924	31
27	-278	109	-915	31
26	-270	108	-906	31
26	-262	107	-897	31
26	-254	106	-888	31
25	-246	105	-878	31
25	-238	104	-869	31
25	-231	103	-860	31
25	-223	102	-851	31
24	-215	101	-841	31
24	-207	100	-832	31
24	-199	99	-823	31
23	-191	98	-814	31
23	-183	97	-804	31
23	-176	97	-795	31
22	-168	96	-786	31
22	-160	95	-777	31
22	-152	94	-768	31
21	-144	93	-758	31
21	-136	92	-749	31
21	-128	91	-740	31
20	-121	90	-731	31
20	-113	89	-721	31
20	-105	88	-712	31
19	-97	87	-703	31
19	-89	86	-694	31
19	-81	85	-685	31
18	-73	84	-675	31
18	-66	83	-666	31
18	-58	82	-657	31
17	-50	81	-648	31
17	-42	80	-638	31
17	-34	79	-629	31
16	-26	78	-620	31
16	-18	77	-611	31
16	-11	77	-602	31
15	-3	76	-592	31
15	5	75	-583	31
15	13	74	-574	31
14	21	73	-565	31
14	29	72	-555	31
14	37	71	-546	31
13	44	70	-537	31
13	52	69	-528	31
13	60	68	-518	31
12	68	67	-509	31
12	76	66	-500	31
12	84	65	-491	31
11	92	64	-482	31
11	99	63	-472	31
11	107	62	-463	31
10	115	61	-454	31
10	123	60	-445	31
10	131	59	-435	31
10	139	58	-426	31
9	147	57	-417	31
9	154	57	-408	31
9	162	56	-399	31
8	170	55	-389	31
8	178	54	-380	31
8	186	53	-371	31
7	194	52	-362	31
7	202	51	-352	31
7	209	50	-343	31
6	217	49	-334	31
6	225	48	-325	31
6	233	47	-316	31
5	241	46	-306	31
5	249	45	-297	31
5	257	44	-288	31
4	264	43	-279	31
4	272	42	-269	31
4	280	41	-260	31
3	288	40	-251	31
3	296	39	-242	31
3	304	38	-232	31
2	312	37	-223	31
2	319	37	-214	31
2	327	36	-205	31
1	335	35	-196	31
1	343	34	-186	31
1	351	33	-177	31
0	359	32	-168	31
0	367	31	-159	31
0	374	30	-149	31
-1	382	29	-140	31
-1	390	28	-131	31
-1	398	27	-122	31
-2	406	26	-113	31
-2	414	25	-103	31
-2	422	24	-94	31
-3	429	23	-85	31
-3	437	22	-76	31
-3	445	21	-66	31
-4	453	20	-57	31
-4	461	19	-48	31
-4	469	18	-39	31
-5	477	17	-29	31
-70	713	31	-64	31
-160	827	92	257	31
-280	858	-186	871	31
-236	218	-477	1362	31
-117	-638	-375	1254	31
69	-1088	67	-355	31
161	-750	504	-1820	31
169	22	278	-1781	31
122	-57	17	-999	31
75	-325	143	-416	31
46	-95	45	185	31
-56	143	-166	966	31
-78	257	-122	1026	31
-1	-6	89	-79	31
40	-421	368	-1707	31
28	-570	350	-1317	31
50	-175	3	-171	31
37	193	-153	-263	31
-30	246	-126	200	31
-96	454	105	479	31
-75	374	163	622	31
-59	128	12	653	31
-67	-62	-148	-206	31
6	-222	-338	-600	31
16	-115	-204	154	31
27	-66	-82	296	31
21	119	-62	-600	31
14	616	9	-453	31
-11	935	266	191	31
-127	662	535	577	31
-103	-191	338	574	31
-21	-659	-57	260	31
11	-260	-226	188	31
-36	120	-142	530	31
-87	-226	-184	574	31
9	-447	-397	7	31
29	-70	-278	-432	31
21	171	98	-713	31
32	282	215	-256	31
26	120	88	371	31
27	-415	82	583	31
49	-679	201	415	31
124	-386	148	-489	31
58	-26	-21	-821	31
-6	41	-298	643	31
1	94	-540	1201	31
7	224	-426	591	31
12	490	-47	-676	31
-52	535	350	-1985	31
-89	55	444	-505	31
-52	-376	212	-146	31
108	-408	82	-616	31
170	-199	183	217	31
56	1	266	317	31
2	62	191	547	31
-74	-15	-82	140	31
-143	120	-209	-157	31
-138	448	-232	127	31
-144	660	-252	347	31
-176	978	-72	626	31
-181	1034	-79	-36	31
-159	599	-98	-497	31
-35	-323	61	-695	31
198	-1568	27	-929	31
399	-1737	41	-92	31
401	-964	305	344	31
166	-511	504	-133	31
-2	-270	307	-105	31
-6	-33	-158	604	31
46	116	-426	1177	31
19	215	-304	1074	31
-6	240	-63	393	31
11	189	75	-743	31
-61	118	120	-1166	31
-150	84	160	-516	31
-193	205	160	-39	31
-133	313	-108	77	31
-72	275	-327	35	31
-29	206	-268	295	31
24	169	-125	511	31
51	98	-93	398	31
45	-161	-115	68	31
25	-143	-6	-441	31
49	9	156	-257	31
46	-6	315	50	31
38	217	182	22	31
-44	614	-120	176	31
-198	1017	-198	108	31
-226	751	-51	-183	31
-150	-355	80	-233	31
-21	-1225	19	0	31
147	-1045	-27	345	31
254	-498	52	479	31
138	-267	139	535	31
9	-27	-16	633	31
62	69	-281	747	31
111	102	-459	570	31
132	117	-323	-630	31
12	52	164	-961	31
-61	72	398	-1057	31
-53	40	483	-1239	31
-132	70	219	166	31
-121	169	-10	-827	31
-99	220	139	-894	31
-64	148	5	154	31
-48	-12	49	-229	31
-26	-141	-47	512	31
50	-76	-207	360	31
56	247	-103	400	31
3	467	-70	208	31
-42	462	2	69	31
-51	178	-12	414	31
-75	-208	98	572	31
-28	-355	158	775	31
-3	-269	34	251	31
-6	-274	-159	-356	31
82	-446	-186	-293	31
125	-234	-110	-331	31
111	-62	-77	-838	31
73	-16	76	-151	31
-32	166	117	63	31
-92	273	126	11	31
-72	465	85	418	31
-59	311	-2	620	31
-41	-124	-171	398	31
-9	-317	-243	-239	31
120	-145	-69	-309	31
140	199	-26	122	31
-62	685	-144	580	31
-148	640	-214	266	31
-95	-301	6	-363	31
29	-962	418	-1308	31
193	-953	556	-902	31
226	-350	274	158	31
94	-108	37	85	31
-95	-237	-57	671	31
-103	-9	-28	984	31
-17	37	124	406	31
-23	150	-75	-114	31
-19	170	-264	-926	31
-19	126	-226	-907	31
5	136	-95	6	31
-11	56	72	-209	31
-80	166	24	-209	31
-13	221	40	429	31
44	214	82	603	31
15	45	12	579	31
-47	-20	-24	126	31
-92	111	67	-34	31
-47	25	218	8	31
-27	-37	74	98	31
42	42	-245	490	31
113	90	-414	669	31
56	-29	-413	551	31
-2	-119	-256	-21	31
-44	-143	-60	-647	31
-15	-85	15	-972	31
-4	35	-15	-484	31
6	9	19	366	31
47	19	228	285	31
47	-84	361	307	31
29	-117	242	74	31
-42	-37	90	-696	31
-111	6	32	-1242	31
-148	196	49	-908	31
-131	150	-77	30	31
-52	11	-86	72	31
98	-108	57	261	31
150	-196	-179	749	31
90	0	-415	777	31
52	113	-335	731	31
-42	161	-15	-98	31
-49	166	310	-1346	31
35	82	302	-300	31
65	78	129	742	31
-18	95	156	-254	31
-89	160	373	-290	31
-38	-46	373	-91	31
31	-398	101	29	31
90	-228	57	97	31
37	508	224	229	31
-72	1162	249	232	31
-186	942	84	-272	31
-209	-163	-438	298	31
-40	-1416	-788	600	31
173	-1357	-596	505	31
322	-499	-290	542	31
248	-400	-14	42	31
55	-176	133	-820	31
11	-5	130	-1129	31
24	-55	-39	-420	31
-16	146	-123	256	31
-28	161	-25	1112	31
-29	339	-98	1245	31
-39	375	-56	840	31
-90	317	-3	265	31
-164	281	100	-1687	31
-236	76	273	-1282	31
-259	121	158	74	31
-140	108	208	-425	31
16	-88	273	64	31
181	-365	234	-105	31
238	-467	117	-420	31
221	-186	-171	-466	31
69	-9	-266	-1148	31
-163	111	-252	-94	31
-156	220	-184	636	31
-161	206	-69	614	31
-67	196	39	1106	31
39	-22	191	1383	31
10	-232	77	1098	31
117	-239	-96	-261	31
254	-309	122	-806	31
204	-217	199	-997	31
62	59	111	-870	31
32	113	-62	-4	31
-75	127	-274	91	31
-201	337	-138	-10	31
-259	780	-132	-27	31
-180	951	-93	228	31
-110	437	49	313	31
-73	-282	52	271	31
113	-881	60	73	31
231	-725	-2	-300	31
262	-347	-6	-137	31
204	-402	26	63	31
213	-62	65	113	31
162	115	65	277	31
-3	54	-36	423	31
-80	182	-45	393	31
-190	413	50	253	31
-259	832	92	-155	31
-258	896	104	-181	31
-234	528	60	27	31
-131	-328	9	-144	31
69	-824	-14	151	31
173	-715	-30	-233	31
123	-767	-22	-1097	31
86	-398	-322	-262	31
18	-231	-646	211	31
-72	-217	-415	-353	31
2	-41	17	-103	31
83	-119	310	722	31
43	6	473	1080	31
155	34	219	624	31
228	55	-81	67	31
-51	60	-194	291	31
-160	21	-50	539	31
19	107	248	-532	31
14	110	113	-1212	31
-3	132	65	-1757	31
-29	172	386	-1914	31
-118	183	444	-308	31
-114	148	309	312	31
-35	156	150	241	31
36	128	-153	294	31
21	86	-411	136	31
45	110	-387	468	31
42	116	-141	527	31
2	98	42	682	31
-20	33	-19	992	31
-37	21	-138	873	31
2	44	-195	458	31
1	47	-122	-54	31
-28	23	95	-981	31
-87	-9	-14	-944	31
-138	-17	-142	530	31
-160	-6	138	618	31
-138	79	253	100	31
-60	169	59	542	31
-55	215	-232	1151	31
-12	197	-313	120	31
54	83	-94	-1094	31
90	-123	176	-1755	31
169	-230	363	-1980	31
113	183	126	201	31
-60	793	-186	1209	31
-153	593	-175	1283	31
-184	-379	-60	277	31
-29	-1244	230	-982	31
162	-1205	290	63	31
187	-520	252	423	31
95	-351	151	845	31
-31	-135	-145	422	31
-36	244	-184	-298	31
-36	425	-323	111	31
19	778	-122	-67	31
20	776	80	-575	31
-110	552	19	-297	31
-77	-42	18	-36	31
24	-765	-248	48	31
236	-1165	-306	350	31
423	-793	-208	384	31
338	194	-4	1065	31
108	295	113	1350	31
-107	338	137	1191	31
-115	176	266	-647	31
-76	-317	256	-2576	31
-32	-373	-54	-1636	31
7	-595	-236	446	31
7	-187	211	1499	31
-13	206	435	1075	31
-118	224	234	-736	31
-137	435	30	-1826	31
-130	280	-123	-580	31
-128	214	-220	313	31
-80	421	-143	-275	31
-102	737	-42	79	31
-133	624	-62	-98	31
-77	-128	34	-337	31
-12	-900	129	45	31
89	-875	179	312	31
158	-198	48	198	31
50	-17	-261	81	31
-50	290	-435	47	31
-80	706	-135	-261	31
-107	685	128	-31	31
-151	418	122	-75	31
-133	-16	116	111	31
-6	-5	-82	456	31
84	-128	-158	252	31
80	-561	-77	149	31
27	-850	14	-220	31
130	-591	17	751	31
221	-99	-265	1704	31
110	-105	-502	1208	31
152	7	-328	109	31
170	-36	121	-2308	31
91	-90	392	-2379	31
91	-90	392	-2379	31
80	-90	394	-2372	31
68	-90	397	-2364	31
56	-90	400	-2356	31
45	-90	402	-2348	31
33	-90	405	-2340	31
21	-90	408	-2333	31
9	-90	410	-2325	31
-2	-90	413	-2317	31
-14	-90	416	-2309	31
-26	-90	419	-2301	31
-37	-90	421	-2294	31
-49	-90	424	-2286	31
-61	-90	427	-2278	31
-73	-90	429	-2270	31
-84	-90	432	-2262	31
-96	-90	435	-2255	31
-108	-90	437	-2247	31
-119	-90	440	-2239	31
-131	-90	443	-2231	31
-143	-90	446	-2223	31
-155	-90	448	-2216	31
-166	-90	451	-2208	31
-178	-90	454	-2200	31
-190	-90	456	-2192	31
-201	-90	459	-2184	31
-213	-90	462	-2177	31
-225	-90	464	-2169	31
-237	-90	467	-2161	31
-248	-90	470	-2153	31
-260	-90	473	-2145	31
-272	-90	475	-2138	31
-283	-90	478	-2130	31
-295	-90	481	-2122	31
-307	-90	483	-2114	31
-319	-91	486	-2106	31
-330	-91	489	-2099	31
-342	-91	491	-2091	31
-354	-91	494	-2083	31
-365	-91	497	-2075	31
-377	-91	500	-2067	31
-389	-91	502	-2060	31
-401	-91	505	-2052	31
-412	-91	508	-2044	31
-424	-91	510	-2036	31
-436	-91	513	-2028	31
-447	-91	516	-2021	31
-459	-91	518	-2013	31
-471	-91	521	-2005	31
-483	-91	524	-1997	31
-494	-91	527	-1989	31
-506	-91	529	-1982	31
-518	-91	532	-1974	31
-529	-91	535	-1966	31
-541	-91	537	-1958	31
-553	-91	540	-1950	31
-565	-91	543	-1943	31
-576	-91	545	-1935	31
-588	-91	548	-1927	31
-600	-91	551	-1919	31
-611	-91	554	-1911	31
-623	-91	556	-1904	31
-635	-91	559	-1896	31
-647	-91	562	-1888	31
-658	-91	564	-1880	31
-670	-91	567	-1872	31
-682	-91	570	-1865	31
-693	-91	572	-1857	31
-705	-91	575	-1849	31
-717	-91	578	-1841	31
-729	-92	581	-1833	31
-576	-416	92	398	31
-32	-586	-65	-158	31
744	-183	-59	-29	31
1027	-38	-163	646	31
714	-72	-118	641	31
51	96	-295	1222	31
-77	-29	-188	714	31
-74	4	-67	655	31
-244	86	178	1139	31
-108	20	105	1495	31
-221	-39	47	49	31
-269	-113	241	-2172	31
-343	2	358	-2051	31
-319	62	336	-391	31
-221	85	-287	670	31
-60	275	-247	-295	31
291	308	392	-1980	31
29	101	389	-1019	31
-512	-86	-353	636	31
-680	-38	-676	-388	31
-610	256	-332	-656	31
-538	426	-149	-151	31
-81	426	42	109	31
795	258	-55	1441	31
1114	-256	-138	699	31
683	-646	145	-442	31
506	-781	226	646	31
970	-744	81	-144	31
977	-408	-128	-213	31
270	-179	37	-621	31
7	-65	221	-414	31
4	57	-282	1052	31
-143	95	-540	422	31
-277	184	-407	1178	31
-557	220	75	739	31
-532	197	671	-1336	31
-383	130	663	-2149	31
-224	69	427	-375	31
146	168	294	165	31
358	194	18	-939	31
19	72	-413	-143	31
-438	50	-752	1504	31
-206	6	-555	1980	31
-193	-94	139	889	31
-154	-34	707	-524	31
219	43	1155	-2282	31
104	155	539	-1103	31
-141	309	-305	628	31
-84	329	-311	17	31
69	262	-259	387	31
21	35	-322	-27	31
32	-228	-555	583	31
-120	-305	-537	562	31
-296	-155	-443	1009	31
-174	41	14	-119	31
42	-24	369	-1310	31
194	-178	229	-976	31
135	-264	254	-362	31
75	-141	135	239	31
187	96	283	-994	31
186	69	172	519	31
114	70	-249	906	31
92	43	-323	120	31
-86	-29	-371	-168	31
-137	102	-90	-473	31
-178	184	93	501	31
-266	269	-44	86	31
-357	327	-169	158	31
-413	229	-79	302	31
-160	-98	173	1287	31
-36	-565	290	1039	31
243	-469	441	-630	31
683	-31	461	-757	31
404	-14	-50	-1095	31
34	102	-455	-797	31
-101	186	-290	56	31
-266	62	-79	1020	31
-216	145	246	1417	31
-155	120	463	123	31
-15	76	141	-489	31
-135	-25	-252	439	31
-302	-166	-386	-325	31
-177	-73	-211	-1404	31
-355	130	244	-1464	31
-560	174	294	-183	31
-492	100	39	1057	31
-103	30	-7	-430	31
466	-267	-269	-671	31
666	-463	-433	-310	31
506	-48	31	130	31
774	413	383	-15	31
1108	276	126	-1348	31
369	-254	11	-727	31
-173	-675	-65	87	31
110	-393	130	839	31
-67	168	313	1247	31
-201	188	199	623	31
-73	54	288	1044	31
-5	241	-227	1865	31
213	718	-688	1714	31
71	822	-682	587	31
-226	203	-184	-1558	31
-261	-679	244	-2367	31
-178	-1226	-56	-1739	31
114	-896	-321	-1793	31
178	-404	-327	-556	31
117	-113	226	254	31
62	122	409	15	31
-218	113	481	560	31
-221	130	865	588	31
-170	120	256	794	31
-122	150	-780	625	31
-9	159	-1218	361	31
-1	169	-415	870	31
-16	216	456	797	31
-104	169	618	286	31
-259	180	596	-108	31
-420	180	200	-157	31
-453	229	-95	-64	31
-343	188	-551	-808	31
151	-7	-474	-605	31
312	-270	211	-66	31
-115	-312	340	-322	31
-88	-81	77	39	31
120	-15	-376	457	31
233	-3	-444	315	31
373	-47	-240	-198	31
381	-25	-72	54	31
429	79	170	238	31
144	49	551	-11	31
-82	81	783	385	31
-89	111	393	739	31
-288	130	-117	582	31
-351	120	-170	-4	31
-344	22	-117	-446	31
-198	-34	-403	-568	31
134	73	-701	-378	31
352	141	-213	-62	31
183	82	920	569	31
183	82	920	569	31
182	66	908	561	31
181	49	895	552	31
180	33	882	544	31
179	16	869	535	31
177	0	856	527	31
176	-17	844	518	31
175	-34	831	510	31
174	-50	818	501	31
173	-67	805	493	31
171	-83	792	484	31
170	-100	779	476	31
169	-117	767	467	31
168	-133	754	459	31
166	-150	741	450	31
165	-166	728	442	31
164	-183	715	433	31
163	-199	702	425	31
162	-216	690	416	31
160	-233	677	408	31
159	-249	664	399	31
158	-266	651	391	31
157	-282	638	382	31
156	-299	625	374	31
154	-316	613	365	31
153	-332	600	357	31
152	-349	587	348	31
151	-365	574	340	31
149	-382	561	331	31
148	-398	548	323	31
147	-415	536	314	31
146	-432	523	306	31
145	-448	510	297	31
143	-465	497	289	31
142	-481	484	280	31
141	-498	471	271	31
140	-515	459	263	31
139	-531	446	254	31
137	-548	433	246	31
136	-564	420	237	31
135	-581	407	229	31
134	-598	395	220	31
132	-614	382	212	31
131	-631	369	203	31
130	-647	356	195	31
129	-664	343	186	31
128	-680	330	178	31
126	-697	318	169	31
125	-714	305	161	31
124	-730	292	152	31
123	-747	279	144	31
122	-763	266	135	31
120	-780	253	127	31
119	-797	241	118	31
118	-813	228	110	31
117	-830	215	101	31
115	-846	202	93	31
114	-863	189	84	31
113	-879	176	76	31
112	-896	164	67	31
111	-913	151	59	31
109	-929	138	50	31
108	-946	125	42	31
107	-962	112	33	31
106	-979	99	25	31
105	-996	87	16	31
103	-1012	74	8	31
102	-1029	61	-1	31
101	-1045	48	-9	31
100	-1062	35	-18	31
98	-1079	22	-27	31
409	-1030	27	37	31
441	-410	-45	121	31
112	-249	13	-84	31
2	-267	235	-468	31
127	-90	239	-181	31
157	-47	102	284	31
115	-13	19	-128	31
-65	41	-22	-919	31
-117	69	-12	-600	31
-70	154	72	214	31
-100	148	-4	270	31
17	112	35	-104	31
-8	115	6	158	31
-85	85	-211	230	31
-65	82	-110	151	31
-65	27	-27	239	31
-53	14	-79	199	31
-67	177	-79	269	31
-99	318	-80	-3	31
-105	371	-43	-165	31
-29	179	-18	137	31
23	-219	125	529	31
45	-377	338	416	31
150	-220	330	-355	31
60	-10	148	-1024	31
-141	69	-143	-600	31
-97	49	-331	-296	31
-57	-36	-135	-218	31
-31	-70	-100	322	31
11	49	-142	607	31
4	181	-41	635	31
-47	125	-37	-223	31
42	41	115	-704	31
315	47	342	448	31
283	15	493	1569	31
117	-87	329	919	31
8	-394	221	-1458	31
-40	-408	247	-2086	31
-34	-80	-54	-532	31
-53	-4	-598	-390	31
-35	12	-747	-250	31
-46	22	-201	-530	31
9	-13	135	-1277	31
60	14	153	-284	31
24	29	14	214	31
-41	45	-79	26	31
-81	49	-38	264	31
-176	45	26	324	31
-277	62	67	389	31
-262	77	-190	739	31
-275	136	-231	583	31
-166	196	-95	172	31
102	128	-37	-40	31
324	-67	-37	31	31
408	-275	129	253	31
388	-185	357	208	31
190	66	393	377	31
-43	108	295	654	31
-50	81	-98	742	31
-80	44	-429	-121	31
-226	-45	-370	-607	31
-140	-89	6	76	31
163	-74	221	413	31
96	-98	229	422	31
7	-55	-52	96	31
72	-43	-600	279	31
-79	-41	-601	295	31
-27	-5	-106	-29	31
153	-57	363	-120	31
93	1	313	-280	31
-56	39	217	-149	31
-17	6	176	-121	31
44	-1	45	-511	31
1	-11	87	-554	31
-7	1	7	186	31
92	19	102	542	31
158	61	190	974	31
79	84	75	1292	31
-14	49	-209	522	31
-134	-2	-448	-440	31
-257	-36	-220	-1208	31
-221	-27	149	-1395	31
-102	-11	330	-633	31
-5	-8	253	-459	31
75	-3	231	-496	31
47	4	250	30	31
-94	107	175	42	31
-168	213	138	479	31
-111	167	-72	757	31
-31	69	-261	572	31
94	-74	-308	603	31
168	-156	-517	251	31
75	-145	-377	-268	31
-1	-192	-134	-532	31
-41	-135	7	-672	31
-24	-49	325	-637	31
-2	-44	330	-325	31
-26	22	152	43	31
-6	57	-118	440	31
-66	49	-188	271	31
-96	17	-62	476	31
-33	-16	4	787	31
7	95	90	156	31
55	272	-37	-880	31
36	234	-301	-597	31
1	26	-426	585	31
22	-181	-186	565	31
65	-352	1	699	31
92	-211	27	-171	31
42	44	287	-1163	31
-4	98	692	52	31
-16	86	645	1015	31
11	4	-74	627	31
-54	-62	-474	-1135	31
-144	-53	-309	-1635	31
-135	-9	333	-562	31
-66	-11	584	-337	31
79	-9	311	159	31
171	93	259	335	31
189	131	-98	486	31
125	37	-287	481	31
4	-96	-413	186	31
-49	-118	-468	360	31
22	79	-239	51	31
79	158	-6	339	31
3	50	60	534	31
-38	-31	-68	-215	31
-29	-150	-93	-862	31
-41	-4	-35	-727	31
-81	174	140	-13	31
-127	107	87	50	31
-199	63	94	112	31
-258	45	57	170	31
-203	163	-175	100	31
-60	247	-251	251	31
213	128	-156	122	31
375	-112	-23	96	31
209	-369	-55	32	31
27	-343	42	151	31
-201	-126	79	375	31
-232	-3	27	261	31
-27	-126	93	-81	31
40	-237	204	-287	31
335	-100	171	30	31
460	6	-21	503	31
125	31	-38	691	31
-23	46	-28	444	31
-35	37	-191	-449	31
-133	67	-434	-603	31
-38	128	-284	-324	31
-24	145	196	-1363	31
-211	227	477	-1201	31
-269	295	684	-145	31
-230	164	562	748	31
44	-97	68	569	31
246	-368	-226	-459	31
153	-333	-229	-428	31
176	-40	-144	235	31
127	21	146	1557	31
-57	62	182	1639	31
-99	79	-228	623	31
-170	-49	-341	-1316	31
-200	-44	-313	-2142	31
-57	-13	-124	-681	31
36	65	240	-11	31
-29	85	312	-249	31
0	35	254	-361	31
73	28	79	5	31
-122	41	-173	162	31
-178	115	-386	160	31
-97	168	-311	240	31
-81	171	92	300	31
107	21	168	371	31
229	-136	-4	281	31
323	-199	-35	371	31
216	-125	-105	354	31
-44	54	-123	244	31
-47	36	-47	11	31
-154	11	-50	-236	31
-163	44	-57	69	31
11	-20	9	468	31
216	-101	81	494	31
257	-75	-173	105	31
36	-24	-390	-378	31
18	25	-108	-97	31
-14	102	258	411	31
-131	106	158	-39	31
-167	156	-94	-698	31
-183	166	17	-203	31
-160	52	4	762	31
-93	-125	186	-320	31
8	-267	368	-1068	31
-21	-244	89	-396	31
1	-108	-16	-153	31
123	-30	89	-88	31
133	-42	174	73	31
106	57	114	167	31
9	96	49	-411	31
-79	11	145	142	31
-27	-59	189	566	31
-7	-116	247	486	31
-17	-48	108	286	31
7	43	-261	-941	31
-19	78	-361	-1062	31
-46	84	-217	362	31
29	98	-92	1558	31
138	196	-222	632	31
38	238	-118	-719	31
-153	145	213	-762	31
-137	19	282	-304	31
-112	-239	380	20	31
-102	-449	206	-120	31
13	-208	-76	238	31
-20	-1	-223	564	31
-123	83	-454	466	31
-70	160	-335	317	31
-133	100	-241	-378	31
-51	113	-275	-739	31
214	17	-348	382	31
204	-21	-370	965	31
318	-62	64	76	31
224	-166	184	-72	31
-41	40	182	-269	31
-28	162	176	-246	31
-55	67	-12	255	31
9	-18	-189	639	31
56	-216	-337	1351	31
54	-255	31	1107	31
27	-98	553	-1291	31
41	-79	843	-2456	31
41	38	448	-899	31
-89	48	-61	128	31
-43	-52	84	253	31
17	22	296	468	31
94	64	330	-21	31
27	52	141	-155	31
-103	-19	-208	334	31
-29	0	-597	430	31
-61	41	-436	-430	31
-58	35	-141	-482	31
-59	59	-244	-259	31
-31	58	-34	-221	31
29	96	171	251	31
-59	115	197	407	31
-151	142	-26	544	31
-140	106	-194	686	31
-40	4	11	463	31
-19	-55	-2	-48	31
67	-111	32	-588	31
170	-75	94	-471	31
103	-87	100	-315	31
37	-80	108	-557	31
-36	26	85	-26	31
-86	29	9	715	31
-42	42	-181	886	31
37	66	-307	443	31
4	94	-311	-74	31
-105	64	-153	10	31
-102	-85	29	610	31
-74	-150	117	362	31
28	-108	95	-329	31
193	-50	292	-799	31
110	-29	315	-730	31
-11	16	154	229	31
1	44	119	-80	31
-41	47	-171	-153	31
21	64	-233	-964	31
12	4	-102	-1174	31
24	7	-68	-133	31
64	164	-21	-627	31
-98	423	-14	-363	31
-164	441	-3	-166	31
-256	116	-9	47	31
-252	-269	-15	378	31
61	-628	0	266	31
441	-539	-41	347	31
341	-212	-65	273	31
-14	-109	20	249	31
-24	27	27	148	31
-158	194	-82	130	31
-211	335	-175	69	31
-55	332	-208	197	31
-27	87	-69	489	31
77	-161	102	862	31
197	-269	218	856	31
168	-220	325	173	31
31	-151	93	-293	31
16	-71	-66	-561	31
28	312	134	-411	31
1	838	191	-406	31
-85	740	210	-330	31
-163	-2	52	-165	31
-95	-797	-42	-262	31
21	-1035	-90	114	31
148	-571	-241	-45	31
140	-247	-78	248	31
79	-57	-7	611	31
-19	115	-36	390	31
-160	51	-49	-224	31
-81	65	-87	-661	31
-2	14	-136	310	31
-13	84	-60	258	31
81	158	4	-21	31
102	80	172	334	31
-9	108	407	57	31
-23	95	219	-493	31
-27	105	-34	-374	31
-76	67	-308	271	31
-37	41	-135	9	31
-19	59	34	287	31
34	83	-146	785	31
40	160	-164	746	31
-59	265	-137	-57	31
-80	262	81	-1396	31
-82	49	110	-1405	31
-61	-162	121	-928	31
-10	-289	171	-92	31
-1	-153	77	431	31
0	-40	-84	485	31
-8	-107	-112	699	31
11	-72	272	88	31
59	19	373	-348	31
75	154	184	-137	31
32	88	-110	347	31
-16	-12	-523	501	31
-50	-72	-448	203	31
-96	-83	-266	158	31
-95	47	-228	-137	31
-58	45	42	-77	31
6	116	262	149	31
-60	204	538	-463	31
-176	500	470	-619	31
-110	916	-173	-236	31
-257	952	-532	11	31
-323	459	-553	534	31
11	-460	-325	430	31
229	-737	-12	-421	31
455	-623	235	-429	31
520	-650	269	62	31
266	-604	202	309	31
165	-775	76	188	31
128	-602	-49	47	31
49	-471	41	68	31
55	-222	50	145	31
-2	251	-16	595	31
-85	190	-120	711	31
-63	300	11	668	31
-3	93	133	261	31
-7	-95	97	-368	31
-36	54	-13	-847	31
-24	32	-158	-838	31
-64	207	-14	215	31
-80	161	175	-487	31
-82	93	278	-920	31
-98	71	142	74	31
-95	120	19	-293	31
-119	381	227	3	31
-76	496	173	178	31
-43	303	-20	-69	31
-43	303	-20	-69	31
-40	288	-26	-66	31
-36	272	-33	-63	31
-32	256	-39	-59	31
-28	240	-46	-56	31
-24	225	-53	-52	31
-20	209	-59	-49	31
-16	193	-66	-46	31
-12	177	-73	-42	31
-8	161	-79	-39	31
-4	146	-86	-35	31
0	130	-93	-32	31
4	114	-99	-29	31
8	98	-106	-25	31
12	83	-113	-22	31
16	67	-119	-18	31
20	51	-126	-15	31
24	35	-133	-12	31
28	19	-139	-8	31
32	4	-146	-5	31
36	-12	-153	-1	31
40	-28	-159	2	31
44	-44	-166	5	31
48	-60	-172	9	31
52	-75	-179	12	31
56	-91	-186	16	31
60	-107	-192	19	31
64	-123	-199	22	31
68	-138	-206	26	31
72	-154	-212	29	31
76	-170	-219	33	31
80	-186	-226	36	31
84	-202	-232	39	31
88	-217	-239	43	31
92	-233	-246	46	31
96	-249	-252	50	31
100	-265	-259	53	31
104	-280	-266	56	31
108	-296	-272	60	31
112	-312	-279	63	31
116	-328	-286	67	31
120	-344	-292	70	31
124	-359	-299	73	31
128	-375	-305	77	31
132	-391	-312	80	31
136	-407	-319	84	31
140	-423	-325	87	31
144	-438	-332	90	31
148	-454	-339	94	31
152	-470	-345	97	31
156	-486	-352	101	31
160	-501	-359	104	31
164	-517	-365	107	31
168	-533	-372	111	31
172	-549	-379	114	31
176	-565	-385	118	31
180	-580	-392	121	31
184	-596	-399	124	31
188	-612	-405	128	31
192	-628	-412	131	31
196	-644	-419	135	31
103	-645	-261	-423	31
216	-373	16	-355	31
148	189	196	130	31
-38	698	150	282	31
-131	1007	57	419	31
-148	1040	79	133	31
-183	1416	42	89	31
-213	1165	-116	328	31
-151	-11	29	-298	31
-122	-732	203	-680	31
-92	-364	134	-553	31
-115	1092	-92	283	31
-47	399	-253	134	31
100	-1741	-140	-612	31
110	-2016	-57	-55	31
309	-1422	86	409	31
500	-479	201	-41	31
267	-28	203	-292	31
41	123	125	-397	31
26	266	-77	46	31
-44	332	-249	1054	31
-102	785	-165	787	31
-156	1041	26	82	31
-247	1158	6	-673	31
-214	537	156	-62	31
-81	-390	336	800	31
21	-513	370	-282	31
38	-394	365	-1452	31
-42	147	37	-1077	31
-261	951	-266	-65	31
-466	1638	123	-140	31
-505	1825	287	91	31
-326	219	-182	201	31
-39	-1477	-439	165	31
367	-2172	-510	203	31
749	-2069	-233	185	31
764	-1476	-120	247	31
613	-769	-151	92	31
347	510	37	504	31
73	791	56	715	31
-108	645	191	794	31
-144	710	222	295	31
-98	388	42	117	31
-92	712	-254	376	31
-92	585	-365	-241	31
-100	366	-221	-527	31
-28	130	-47	-1078	31
-73	-56	118	-1734	31
-108	313	49	-335	31
-145	426	102	44	31
-219	147	253	-165	31
-138	-181	171	401	31
-43	-173	-77	63	31
7	68	-38	556	31
-39	72	219	388	31
-105	9	355	329	31
-60	-79	407	191	31
6	-545	149	69	31
31	-664	-285	623	31
92	-55	-492	481	31
69	238	-431	246	31
-25	-68	-369	-788	31
-55	-406	-110	-1152	31
11	-775	117	-371	31
69	-555	148	52	31
17	-184	78	105	31
-34	432	57	7	31
-106	1418	119	95	31
-183	1123	12	129	31
-130	21	26	205	31
57	-1152	-76	325	31
127	-1201	-90	43	31
177	-574	96	-267	31
283	-727	258	66	31
163	-667	251	694	31
107	-432	-103	926	31
61	-100	-281	686	31
-59	53	-30	-350	31
-51	209	100	-948	31
-127	1130	-60	-539	31
-250	2139	-100	-525	31
-342	1850	52	-694	31
-345	188	421	-427	31
-207	-1115	418	21	31
-22	-1454	-77	54	31
156	-1349	-266	192	31
353	-1449	-292	118	31
448	-662	-39	-183	31
413	132	237	191	31
273	10	54	87	31
29	-198	-61	18	31
-97	-480	-23	272	31
-132	222	-37	380	31
-218	1024	-85	644	31
-314	1783	-95	489	31
-295	1611	23	164	31
-159	-27	191	16	31
12	-669	-32	339	31
233	-570	-461	702	31
304	-545	-510	-539	31
135	-716	-269	-1093	31
1	-179	72	-181	31
-122	1016	419	-673	31
-280	1249	431	-689	31
-305	604	150	-74	31
-247	-815	131	11	31
4	-1906	203	41	31
342	-1170	216	133	31
387	72	161	-85	31
221	-21	-120	-355	31
69	-236	-340	662	31
103	65	-434	815	31
137	253	-201	3	31
-19	774	-60	-241	31
-173	1464	-108	-64	31
-293	1721	81	-737	31
-340	1000	363	-981	31
-200	-145	322	194	31
33	-996	-246	601	31
185	-1096	-381	1026	31
326	-1068	-139	617	31
388	-897	22	-104	31
144	60	153	29	31
-69	100	219	-85	31
-138	-99	171	-180	31
-120	-107	129	-698	31
-21	64	263	-469	31
-45	719	126	464	31
-129	1077	27	169	31
-241	1603	-41	-373	31
-258	1307	-134	-496	31
-78	137	-318	-165	31
133	-1032	-359	302	31
204	-1556	51	158	31
178	-743	179	175	31
34	-59	93	295	31
-130	-16	-19	404	31
-146	-138	-34	334	31
-106	-498	3	329	31
65	-489	-90	348	31
198	-188	-296	397	31
189	205	-545	478	31
54	734	-471	-710	31
-204	802	-194	-1270	31
-269	376	290	-782	31
-183	105	845	-280	31
-90	472	883	-16	31
-64	801	714	308	31
-19	65	115	599	31
128	-1019	-620	475	31
151	-1251	-414	701	31
110	-694	-89	-92	31
131	57	-130	-673	31
76	897	-183	-536	31
-115	1524	-50	-297	31
-211	1092	114	-265	31
-101	-327	50	-156	31
47	-1190	-36	-100	31
181	-676	92	-412	31
328	-457	274	483	31
374	-1095	62	656	31
224	-1384	-383	569	31
120	-735	-477	605	31
97	143	-375	805	31
-17	124	-404	1651	31
-70	246	-307	1209	31
-146	313	119	-444	31
-175	140	687	-2334	31
-167	236	843	-2247	31
-155	114	636	-669	31
-56	244	294	303	31
-36	269	-116	391	31
-30	267	-210	-42	31
-50	292	-258	507	31
-83	208	-188	813	31
-92	225	100	502	31
-115	102	230	248	31
-99	109	293	-502	31
-61	81	180	-619	31
-24	71	-206	-167	31
-16	96	-373	24	31
-1	64	-57	164	31
64	98	211	24	31
123	68	-37	-158	31
94	80	-307	107	31
31	81	-47	125	31
13	85	-59	272	31
1	80	-273	470	31
0	52	-312	457	31
-3	38	-429	563	31
22	12	-195	286	31
55	7	122	449	31
60	-31	165	1072	31
62	-64	56	264	31
-1	-89	87	-1224	31
-57	-67	328	-2201	31
-77	25	182	-1916	31
-85	71	-141	9	31
-49	8	-264	813	31
-49	8	-264	813	31
-49	-12	-253	796	31
-48	-32	-241	778	31
-47	-53	-230	760	31
-46	-73	-218	743	31
-45	-93	-206	725	31
-44	-114	-195	707	31
-43	-134	-183	690	31
-42	-154	-172	672	31
-41	-175	-160	654	31
-40	-195	-148	636	31
-39	-215	-137	619	31
-38	-236	-125	601	31
-37	-256	-114	583	31
-36	-277	-102	566	31
-35	-297	-90	548	31
-34	-317	-79	530	31
-33	-338	-67	513	31
-33	-358	-56	495	31
-32	-378	-44	477	31
-31	-399	-32	459	31
-30	-419	-21	442	31
-29	-439	-9	424	31
-28	-460	2	406	31
-27	-480	14	389	31
-26	-500	26	371	31
-25	-521	37	353	31
-24	-541	49	336	31
-23	-562	60	318	31
-22	-582	72	300	31
-21	-602	84	282	31
-20	-623	95	265	31
-19	-643	107	247	31
-18	-663	118	229	31
-17	-684	130	212	31
-16	-704	142	194	31
-16	-724	153	176	31
-15	-745	165	159	31
-14	-765	176	141	31
-13	-785	188	123	31
-12	-806	200	105	31
-11	-826	211	88	31
-10	-847	223	70	31
-9	-867	234	52	31
-8	-887	246	35	31
-7	-908	258	17	31
-6	-928	269	-1	31
-5	-948	281	-18	31
-4	-969	292	-36	31
-3	-989	304	-54	31
-2	-1009	316	-72	31
-1	-1030	327	-89	31
0	-1050	339	-107	31
0	-1070	350	-125	31
1	-1091	362	-142	31
2	-1111	374	-160	31
3	-1132	385	-178	31
4	-1152	397	-195	31
5	-1172	408	-213	31
6	-1193	420	-231	31
7	-1213	432	-249	31
8	-1233	443	-266	31
9	-1254	455	-284	31
10	-1274	466	-302	31
11	-1294	478	-319	31
12	-1315	490	-337	31
13	-1335	501	-355	31
14	-1355	513	-372	31
15	-1376	524	-390	31
16	-1396	536	-408	31
17	-1417	548	-426	31
312	-586	225	334	31
432	328	-360	853	31
170	830	-552	980	31
17	663	-290	259	31
9	126	-2	-296	31
111	-113	-44	-68	31
91	121	-238	533	31
-12	204	-417	577	31
-77	327	-470	-307	31
-162	775	42	-931	31
-177	962	417	65	31
-65	620	304	885	31
-35	280	47	852	31
-221	561	-123	621	31
-280	1045	-242	92	31
-233	161	-548	-698	31
-228	-1215	-420	-739	31
84	-1575	322	1146	31
524	-1279	825	1107	31
525	-862	382	-145	31
213	-697	-489	-276	31
1	-6	-667	-41	31
145	187	-63	-408	31
160	193	434	-479	31
77	510	491	-853	31
143	374	110	-1398	31
-109	340	-242	-324	31
-280	-69	-141	-518	31
-153	-49	-24	415	31
-20	216	-140	481	31
-149	485	251	-246	31
-268	1545	559	1004	31
-369	2058	124	1408	31
-443	1244	-77	643	31
-32	-1039	-365	-892	31
472	-2275	-386	-1178	31
630	-1850	8	-956	31
487	-863	-21	22	31
260	-165	-8	729	31
-67	530	108	362	31
-199	670	270	-916	31
-232	806	449	-1242	31
-229	166	302	443	31
-72	-361	-5	-197	31
6	-103	-198	-218	31
68	519	-335	554	31
-9	1119	-252	352	31
-71	851	-47	685	31
-105	71	-115	761	31
-102	-864	-245	542	31
41	-1115	-172	-50	31
32	-754	124	-132	31
-17	-376	153	224	31
-93	-114	119	413	31
-190	134	211	148	31
-166	322	22	133	31
-43	88	-326	417	31
17	330	-671	116	31
-55	966	-549	-133	31
-32	884	-22	-77	31
-7	-237	483	397	31
80	-1079	464	1485	31
271	-842	49	971	31
287	-780	195	-1725	31
248	-771	709	-2381	31
162	-260	280	-1375	31
59	181	-275	-1605	31
-77	310	-370	-1028	31
-170	523	-717	1014	31
-141	726	-251	1032	31
-184	388	404	-357	31
-132	-193	657	-1730	31
-77	-732	460	-1612	31
13	-631	-240	-598	31
189	24	-393	-458	31
183	44	257	524	31
-51	63	491	850	31
-214	429	246	206	31
-163	760	290	588	31
-102	773	184	466	31
74	-112	-107	527	31
128	-800	-573	993	31
125	-540	-714	850	31
79	533	-461	815	31
-204	1658	-151	616	31
-236	1515	-6	476	31
-160	-35	-119	337	31
-67	-1436	-94	307	31
161	-1065	-3	310	31
209	-274	61	209	31
92	-483	-24	156	31
54	-261	-42	115	31
134	-111	24	402	31
153	-408	-95	1138	31
45	391	-337	1625	31
7	856	-495	1421	31
-42	764	-167	539	31
-204	965	595	-1841	31
-196	522	873	-2427	31
-103	-627	281	607	31
87	-1896	120	1231	31
268	-1830	303	137	31
223	-869	85	653	31
187	-365	-44	747	31
169	-29	-133	199	31
148	-16	-17	-358	31
61	87	158	449	31
-21	259	-41	774	31
-110	463	-114	-191	31
-168	666	90	-99	31
-190	183	47	-209	31
-204	-219	-96	-62	31
-218	-145	-32	415	31
-342	214	24	-225	31
-197	345	1	-72	31
-20	224	-28	-194	31
-21	349	86	-380	31
91	626	-35	-454	31
178	1316	-189	-681	31
2	1270	123	-412	31
-74	123	260	-480	31
189	-924	107	-1165	31
308	-1172	-298	-1635	31
346	-697	-749	-554	31
242	-635	-820	-102	31
65	-262	-378	631	31
-12	119	114	223	31
-156	116	132	-991	31
-240	574	229	-517	31
-375	1005	336	-1567	31
-418	1467	341	-1426	31
-290	497	350	-358	31
31	-1324	446	-522	31
434	-1719	425	269	31
460	-735	-14	1070	31
92	158	-340	745	31
-116	-181	-270	330	31
-38	-111	-131	-424	31
-18	105	-65	-669	31
76	50	107	312	31
16	180	170	37	31
-46	-39	203	-242	31
-55	270	-59	372	31
-156	426	-202	518	31
-25	-72	-113	814	31
12	-357	-187	310	31
34	-119	-152	-345	31
92	361	-319	-156	31
36	398	-230	821	31
-31	280	82	1196	31
-64	-192	381	92	31
-32	-543	342	-590	31
-37	-312	25	-407	31
14	-98	126	198	31
108	103	62	224	31
93	47	-179	-684	31
-63	-94	-337	-1711	31
-117	-156	-348	-629	31
-24	-136	-45	842	31
-62	209	247	45	31
-171	897	550	-878	31
-204	1162	410	-828	31
-159	371	-113	251	31
-62	-497	-214	276	31
-13	-755	-188	290	31
30	-418	-100	546	31
80	14	-15	487	31
56	757	95	818	31
136	1243	284	641	31
194	326	269	742	31
92	-894	60	18	31
175	-1706	-227	-786	31
252	-1172	-404	-1038	31
83	-113	-593	-502	31
-69	13	-468	356	31
-93	127	122	441	31
-95	-67	405	655	31
-34	-246	26	126	31
64	-68	-404	619	31
40	17	-246	1095	31
-72	257	125	-499	31
-166	222	656	-1605	31
-128	127	803	-941	31
-7	236	300	279	31
28	623	117	441	31
-73	957	97	120	31
-149	585	192	-288	31
-236	357	190	-742	31
-187	449	-228	-160	31
-187	449	-228	-160	31
-185	444	-235	-146	31
-182	439	-242	-131	31
-179	433	-250	-116	31
-176	428	-257	-101	31
-173	423	-264	-86	31
-170	417	-272	-71	31
-168	412	-279	-56	31
-165	407	-286	-41	31
-162	401	-294	-26	31
-159	396	-301	-11	31
-156	391	-308	4	31
-153	385	-316	19	31
-151	380	-323	34	31
-148	375	-330	49	31
-145	369	-338	64	31
-142	364	-345	79	31
-139	359	-352	94	31
-136	353	-360	109	31
-134	348	-367	124	31
-131	342	-375	139	31
-128	337	-382	154	31
-125	332	-389	169	31
-122	326	-397	184	31
-119	321	-404	199	31
-117	316	-411	214	31
-114	310	-419	229	31
-111	305	-426	244	31
-108	300	-433	259	31
-105	294	-441	274	31
-102	289	-448	289	31
-100	284	-455	304	31
-97	278	-463	319	31
-94	273	-470	334	31
-91	268	-477	349	31
-88	262	-485	364	31
-85	257	-492	379	31
-83	252	-499	394	31
-80	246	-507	409	31
-77	241	-514	424	31
-74	235	-522	439	31
-71	230	-529	454	31
-68	225	-536	469	31
-66	219	-544	484	31
-63	214	-551	499	31
-60	209	-558	514	31
-57	203	-566	529	31
-54	198	-573	544	31
-51	193	-580	559	31
-49	187	-588	574	31
-46	182	-595	589	31
-43	177	-602	604	31
-40	171	-610	619	31
-37	166	-617	634	31
-34	161	-624	649	31
-32	155	-632	664	31
-29	150	-639	679	31
-26	145	-646	694	31
-23	139	-654	709	31
-20	134	-661	724	31
-17	128	-669	739	31
-22	-108	-527	1130	31
-50	-208	-216	530	31
-82	-34	173	-227	31
-74	146	418	-884	31
-55	281	339	-200	31
-69	461	-95	1061	31
-40	278	-22	668	31
-28	-39	277	-209	31
4	-347	454	-1301	31
46	-363	448	-1250	31
16	-96	37	-375	31
-26	550	84	-1152	31
-64	927	-7	-575	31
-158	95	-261	133	31
-192	-773	-350	629	31
-144	-796	-460	1120	31
-59	-190	-340	649	31
21	332	5	-47	31
2	691	411	-976	31
65	987	659	-823	31
83	698	590	-291	31
-33	-284	25	146	31
-69	-1698	-277	-185	31
178	-1821	-90	72	31
410	-1025	-29	314	31
261	-558	-146	27	31
241	64	-256	519	31
264	330	-221	413	31
-4	809	-133	444	31
-311	1159	24	-108	31
-298	547	84	-264	31
-49	-505	-6	196	31
127	-927	-35	6	31
224	-87	-16	98	31
288	289	21	118	31
168	33	39	39	31
32	-69	21	-89	31
41	-81	-97	-328	31
-43	-14	-158	-397	31
-7	-259	7	16	31
-113	-285	106	810	31
-200	-22	77	1212	31
-103	92	-35	513	31
-155	242	-93	21	31
-123	713	-102	513	31
-163	1122	-206	891	31
-296	699	-103	542	31
-397	-242	4	-1169	31
-223	-968	53	-1837	31
16	-722	147	-890	31
233	-95	173	-148	31
696	-69	366	91	31
529	70	457	-516	31
23	81	75	61	31
-17	12	-330	-60	31
-82	138	-245	-754	31
-118	280	-26	-604	31
-127	745	45	-848	31
-160	766	249	461	31
-82	161	386	502	31
-50	-251	309	216	31
-14	-140	107	406	31
-19	-244	-185	24	31
-7	-709	-252	151	31
44	-757	-184	-286	31
82	-406	-300	343	31
96	-29	-139	514	31
47	119	9	783	31
-95	465	-26	929	31
-213	884	-60	118	31
-246	573	-221	-850	31
-191	-245	-181	-1002	31
65	-856	-143	-113	31
237	-665	-74	32	31
218	-57	-60	1407	31
166	109	-92	1371	31
27	546	60	615	31
-139	930	-84	337	31
-181	370	-196	-1189	31
-163	-312	-36	-1274	31
-62	-654	312	-363	31
54	-65	791	-425	31
28	965	849	-1489	31
17	1071	618	-1100	31
-4	25	-20	583	31
57	-1397	-512	482	31
226	-1650	-505	376	31
273	-977	-444	567	31
143	-315	-93	-299	31
46	128	99	-375	31
43	267	42	89	31
-99	447	-103	272	31
-185	454	-189	524	31
-208	218	-205	673	31
-261	-65	-234	360	31
-247	-174	144	-207	31
-175	-189	502	-208	31
-20	-66	396	-166	31
270	77	-132	-109	31
398	-12	-262	168	31
117	74	131	-778	31
21	114	-42	-408	31
-35	167	-215	613	31
-74	151	-222	459	31
14	101	-267	936	31
100	126	-97	912	31
289	44	-166	900	31
168	97	-138	231	31
-55	89	55	-365	31
-125	95	218	-286	31
11	98	489	-1994	31
42	41	461	-1650	31
-132	18	125	-252	31
-137	-29	102	-568	31
-105	22	82	312	31
-55	42	-120	10	31
-6	5	-73	-427	31
0	-35	82	50	31
-29	-51	105	325	31
-153	74	-24	489	31
-204	446	-167	213	31
-242	712	-229	383	31
-276	410	-186	228	31
-47	-249	-194	70	31
387	-814	3	85	31
459	-657	183	534	31
161	-156	83	544	31
88	-27	103	-74	31
-39	30	15	-122	31
-126	-101	-19	-100	31
-77	-225	103	42	31
-124	-115	152	362	31
-70	-47	97	702	31
-58	24	-141	484	31
44	12	-171	269	31
264	9	-77	-560	31
264	41	-78	-969	31
40	50	160	81	31
-211	66	183	95	31
-361	60	-135	52	31
-206	150	-260	62	31
76	207	-322	-605	31
156	106	-247	-917	31
218	-89	47	-958	31
102	-196	72	-214	31
-103	-63	-154	145	31
-94	66	-247	-44	31
-119	125	-221	405	31
-60	155	-46	615	31
91	163	123	649	31
125	234	214	95	31
75	-32	390	180	31
-53	-365	424	677	31
35	-315	449	155	31
21	-184	408	82	31
-148	42	125	-524	31
-21	272	82	-1144	31
17	428	-158	-378	31
-108	531	-508	-44	31
-313	408	-444	-312	31
-253	15	-127	-347	31
78	-602	26	-125	31
279	-1051	-171	149	31
405	-720	-123	-99	31
439	79	-216	566	31
246	302	-223	1091	31
39	-7	-94	827	31
19	-389	-89	1490	31
-195	-261	85	1293	31
-304	259	132	-855	31
-392	184	439	-2413	31
-504	-85	884	-2077	31
-161	-246	763	-1204	31
305	-26	206	-442	31
530	436	-123	-41	31
245	432	-334	264	31
-154	303	-400	118	31
-218	272	-58	-102	31
-280	583	26	562	31
-368	345	-54	859	31
-301	-675	22	1099	31
-262	-1023	-12	810	31
-87	-386	-109	105	31
219	288	-102	-825	31
218	118	-229	-536	31
381	-120	-342	408	31
762	-165	-181	-476	31
354	-161	-57	-162	31
-24	165	29	221	31
65	348	123	57	31
-66	279	199	471	31
108	209	282	707	31
277	84	266	1250	31
203	-254	-65	885	31
-2	-359	-436	24	31
-198	-396	-588	-417	31
-80	-227	-457	-84	31
-35	144	-11	-499	31
-39	135	279	-1070	31
-39	135	279	-1070	31
-42	133	275	-1065	31
-45	130	271	-1059	31
-48	128	266	-1054	31
-52	125	262	-1048	31
-55	123	257	-1043	31
-58	120	253	-1037	31
-62	118	248	-1031	31
-65	115	244	-1026	31
-68	113	239	-1020	31
-72	110	235	-1015	31
-75	108	231	-1009	31
-78	105	226	-1003	31
-81	103	222	-998	31
-85	100	217	-992	31
-88	98	213	-987	31
-91	95	208	-981	31
-95	93	204	-976	31
-98	90	199	-970	31
-101	88	195	-964	31
-105	85	190	-959	31
-108	83	186	-953	31
-111	80	182	-948	31
-114	78	177	-942	31
-118	75	173	-936	31
-121	73	168	-931	31
-124	70	164	-925	31
-128	68	159	-920	31
-131	65	155	-914	31
-134	63	150	-909	31
-138	60	146	-903	31
-141	57	142	-897	31
-144	55	137	-892	31
-147	52	133	-886	31
-151	50	128	-881	31
-154	47	124	-875	31
-157	45	119	-869	31
-161	42	115	-864	31
-164	40	110	-858	31
-167	37	106	-853	31
-171	35	101	-847	31
-174	32	97	-842	31
-177	30	93	-836	31
-180	27	88	-830	31
-184	25	84	-825	31
-187	22	79	-819	31
-190	20	75	-814	31
-194	17	70	-808	31
-197	15	66	-802	31
-200	12	61	-797	31
-204	10	57	-791	31
-207	7	53	-786	31
-210	5	48	-780	31
-213	2	44	-775	31
-217	0	39	-769	31
-220	-3	35	-763	31
-223	-5	30	-758	31
-227	-8	26	-752	31
-230	-10	21	-747	31
-233	-13	17	-741	31
-237	-16	12	-735	31
-176	-60	226	-1048	31
-37	14	475	290	31
264	208	482	238	31
294	147	275	-330	31
-80	14	2	489	31
-74	-187	-401	725	31
-47	-194	-653	408	31
34	75	-547	-1211	31
72	82	-186	-1473	31
-218	36	-99	-252	31
-124	-22	-22	-559	31
25	-37	84	204	31
184	80	4	676	31
158	51	118	644	31
-61	55	93	709	31
-71	111	122	-345	31
-150	70	123	-309	31
-160	-6	-2	607	31
-87	-41	-14	276	31
72	32	103	-850	31
9	67	355	-694	31
-75	21	328	259	31
123	-45	184	622	31
129	-82	71	252	31
59	-20	-14	79	31
-31	139	224	-209	31
-4	456	599	65	31
49	659	234	298	31
-92	373	-211	-69	31
12	-226	-402	880	31
81	-728	-921	-122	31
-213	-646	-861	-1221	31
-380	-230	-541	-1243	31
-246	-84	-36	-1074	31
-45	-133	161	458	31
320	-234	50	547	31
684	-282	81	698	31
416	-150	4	410	31
266	40	356	-279	31
282	-1	401	231	31
-97	19	232	401	31
-84	92	-147	-70	31
-41	70	-487	-514	31
-106	112	-298	-203	31
-75	60	-102	95	31
-102	72	388	35	31
-50	66	687	-204	31
-68	52	426	-240	31
-47	103	256	480	31
-75	134	19	997	31
-128	328	-393	1113	31
-154	487	-701	876	31
-202	322	-439	92	31
-208	-90	535	-1067	31
-132	-434	806	-1605	31
-34	-388	148	-527	31
-174	-143	-420	-269	31
-149	-73	-603	-464	31
165	-2	-330	489	31
275	-2	60	660	31
244	-122	203	-127	31
133	-140	57	-780	31
105	-7	-27	-160	31
87	186	-59	562	31
33	163	85	273	31
76	130	194	266	31
-193	126	337	309	31
-282	98	786	301	31
-105	102	806	111	31
-155	-188	569	-239	31
106	-360	-344	-322	31
405	-168	-1221	-419	31
305	-110	-732	-145	31
100	-136	-110	240	31
-74	-119	10	272	31
-69	-7	-118	519	31
82	90	-287	566	31
126	60	-311	426	31
12	96	-315	-3	31
-22	82	-352	-573	31
-53	37	-263	-922	31
-82	63	-1	-843	31
-60	79	375	-315	31
-213	65	341	-193	31
-355	45	226	239	31
-260	120	156	402	31
-74	228	-421	561	31
-36	348	-705	651	31
-93	514	-143	-86	31
-123	381	591	-303	31
-114	-65	706	-40	31
119	-510	618	383	31
546	-761	502	176	31
588	-356	261	-222	31
163	-108	-87	-263	31
33	-376	-518	-272	31
31	-191	-475	-201	31
1	-187	-59	19	31
59	-149	130	113	31
-24	90	12	-148	31
32	7	52	329	31
-13	108	120	475	31
-130	97	93	272	31
-102	100	-2	-297	31
-112	125	-191	-591	31
-95	41	-233	-4	31
-60	68	-149	41	31
-42	60	-44	346	31
-57	200	402	-27	31
-60	244	769	-284	31
-47	184	656	-65	31
-12	181	342	-475	31
-39	181	-466	293	31
-67	281	-970	916	31
-69	233	-511	560	31
-101	-59	-29	239	31
7	-184	-149	-529	31
-77	-69	-68	-733	31
-227	-67	387	-282	31
-219	-376	360	-468	31
-200	-596	38	-480	31
140	-183	-312	-539	31
352	65	-459	-297	31
155	-97	-302	574	31
288	-219	-27	146	31
399	-416	42	154	31
132	-199	-16	319	31
163	75	1	27	31
126	47	-67	218	31
8	100	49	149	31
30	59	206	194	31
-132	162	193	197	31
-168	381	42	175	31
-118	375	-67	75	31
-105	170	-74	159	31
-52	-135	46	196	31
44	-348	233	168	31
-19	-230	262	277	31
-94	42	145	204	31
-49	92	32	-75	31
-92	198	36	-431	31
-4	219	-70	-59	31
16	133	-79	137	31
-102	245	-163	-32	31
-179	314	-189	-278	31
-205	155	151	-560	31
-167	-243	177	-709	31
-6	-560	-60	-621	31
269	-310	-221	-116	31
253	118	-244	173	31
-24	54	65	405	31
-256	65	258	373	31
-256	207	57	654	31
-68	487	-174	1162	31
0	1069	-344	1557	31
50	1184	-152	1581	31
-9	615	226	160	31
22	-707	645	-2025	31
300	-1799	846	-2477	31
372	-1643	480	-1567	31
458	-841	-31	-293	31
347	-348	-615	600	31
62	-214	-644	646	31
107	41	-255	686	31
46	143	-289	852	31
-93	281	-232	328	31
-216	517	52	-240	31
-265	523	156	-496	31
-147	307	196	14	31
-92	-117	87	573	31
-41	-384	57	395	31
15	-178	6	453	31
62	80	-75	611	31
-4	39	51	-49	31
-72	32	24	-1183	31
-39	5	67	-1341	31
-45	19	179	-358	31
-37	84	269	-1	31
-57	118	156	526	31
-55	289	-218	1010	31
-29	337	-528	1177	31
-58	268	-625	1240	31
-77	133	-230	28	31
-95	-27	343	-1379	31
-43	-127	409	-2000	31
39	-204	309	-1381	31
35	-203	221	-246	31
-9	-113	-226	442	31
-65	50	-387	851	31
-111	165	-217	716	31
-85	224	-140	-53	31
-16	122	29	-1095	31
37	-33	201	-810	31
193	201	279	442	31
136	680	519	291	31
-100	596	626	-635	31
-59	-198	123	-1457	31
-57	-928	-721	-383	31
49	-813	-863	1120	31
49	-813	-863	1120	31
46	-802	-843	1090	31
42	-790	-822	1059	31
39	-778	-801	1028	31
35	-766	-780	997	31
32	-754	-759	966	31
28	-742	-739	935	31
25	-731	-718	904	31
21	-719	-697	874	31
18	-707	-676	843	31
14	-695	-655	812	31
11	-683	-635	781	31
7	-671	-614	750	31
4	-659	-593	719	31
0	-648	-572	688	31
-4	-636	-551	657	31
-7	-624	-531	627	31
-11	-612	-510	596	31
-14	-600	-489	565	31
-18	-588	-468	534	31
-21	-576	-447	503	31
-25	-565	-427	472	31
-28	-553	-406	441	31
-32	-541	-385	411	31
-35	-529	-364	380	31
-39	-517	-343	349	31
-42	-505	-323	318	31
-46	-494	-302	287	31
-49	-482	-281	256	31
-53	-470	-260	225	31
-57	-458	-239	194	31
-60	-446	-219	164	31
-64	-434	-198	133	31
-67	-422	-177	102	31
-71	-411	-156	71	31
-74	-399	-135	40	31
-78	-387	-115	9	31
-81	-375	-94	-22	31
-85	-363	-73	-52	31
-88	-351	-52	-83	31
-92	-339	-31	-114	31
-95	-328	-11	-145	31
-99	-316	10	-176	31
-102	-304	31	-207	31
-106	-292	52	-238	31
-110	-280	73	-269	31
-113	-268	93	-299	31
-117	-257	114	-330	31
-120	-245	135	-361	31
-124	-233	156	-392	31
-127	-221	177	-423	31
-131	-209	197	-454	31
-134	-197	218	-485	31
-138	-185	239	-515	31
-141	-174	260	-546	31
-145	-162	281	-577	31
-148	-150	301	-608	31
-152	-138	322	-639	31
-155	-126	343	-670	31
-159	-114	364	-701	31
-163	-102	385	-732	31
-54	25	232	-612	31
17	5	-180	486	31
174	39	-483	946	31
254	-65	-401	1288	31
122	-115	-227	582	31
-24	-23	87	-1259	31
43	74	543	-2194	31
47	178	469	-1327	31
-55	-13	-38	622	31
16	-207	-398	1912	31
42	-219	-383	1128	31
7	-79	309	-1533	31
-69	16	743	-2198	31
-163	-92	127	-373	31
-105	-59	-12	288	31
23	12	252	75	31
-1	195	77	375	31
-186	339	-137	103	31
-228	216	-520	394	31
-168	7	-373	574	31
-27	-202	15	684	31
213	54	-92	613	31
219	593	-39	393	31
-172	576	83	67	31
-307	37	44	-274	31
15	-725	-44	-10	31
134	-988	-82	-180	31
383	-405	6	-251	31
578	-183	53	-214	31
262	-77	115	21	31
52	234	176	199	31
-35	305	203	-39	31
-155	268	130	64	31
-98	-143	-45	56	31
-43	-302	-178	-41	31
60	-108	-92	-284	31
-4	48	113	-370	31
-218	186	127	39	31
-170	101	-87	284	31
-135	1	-346	-149	31
43	-63	-191	-365	31
209	-37	92	2	31
179	64	-75	-27	31
153	145	-171	213	31
-55	260	-97	311	31
-82	288	181	370	31
-52	128	385	514	31
-87	-114	22	-770	31
-87	-279	-190	-736	31
-146	-165	-479	227	31
-60	45	-284	-834	31
-123	55	249	-1396	31
-189	63	257	-458	31
-121	46	213	188	31
-36	32	140	-4	31
95	34	183	298	31
124	-2	155	385	31
73	-71	105	-9	31
-11	-97	57	132	31
27	19	97	72	31
148	9	248	41	31
128	-7	122	241	31
32	1	-107	270	31
24	-1	-230	463	31
6	31	-461	211	31
-21	13	-433	-357	31
1	48	22	-26	31
-21	45	42	-47	31
-32	32	-27	-295	31
-32	-3	60	71	31
-34	-51	-6	150	31
-36	-6	-12	270	31
-22	79	-12	238	31
-19	92	-1	-53	31
-22	40	-103	192	31
-6	46	-237	320	31
-5	105	-67	221	31
-18	150	276	22	31
-98	88	413	-287	31
-146	24	213	-254	31
-154	-107	-78	-224	31
-166	-251	-228	-191	31
-50	-271	-124	-177	31
91	-263	49	-287	31
113	-158	65	-123	31
224	-65	39	451	31
286	38	-17	836	31
128	90	-27	800	31
68	41	50	165	31
-9	8	74	-642	31
-56	-14	20	-805	31
-98	181	-114	-740	31
-206	647	-45	-438	31
-186	864	115	-364	31
-179	357	84	-20	31
-64	-503	-50	742	31
112	-1128	-95	837	31
186	-847	60	780	31
180	-209	126	-87	31
173	-166	148	-1071	31
219	-32	32	-447	31
120	44	-36	81	31
-7	30	153	46	31
13	125	44	292	31
-17	56	-36	136	31
-67	107	107	121	31
-81	100	213	-21	31
-158	123	-7	173	31
-194	164	-509	229	31
-166	144	-582	-396	31
-87	209	-543	62	31
-8	259	-475	248	31
49	379	-49	89	31
-7	457	234	1	31
-112	171	342	-307	31
34	-272	368	-30	31
140	-424	155	395	31
125	-251	-32	511	31
184	163	-18	332	31
87	228	-69	49	31
-21	-284	-157	-661	31
-29	-677	-94	-430	31
-9	-567	87	86	31
45	-201	274	-653	31
27	-57	163	-585	31
-53	18	132	-210	31
-100	98	165	141	31
-65	161	52	790	31
-50	280	-74	583	31
-22	236	-162	-76	31
-15	94	-94	133	31
-12	-85	-97	240	31
43	-114	46	-186	31
9	-58	103	-321	31
-19	-26	140	-498	31
-32	98	141	-147	31
-48	140	66	-226	31
-51	188	118	-134	31
-96	296	122	280	31
-111	416	238	521	31
-126	605	67	714	31
-127	799	-354	328	31
46	475	-498	-234	31
178	-471	-236	-807	31
77	-1150	-70	-384	31
99	-1049	85	3	31
165	-480	274	84	31
86	-36	314	-24	31
-48	113	347	-21	31
-42	-19	78	-72	31
180	-125	-297	-203	31
190	24	-715	378	31
84	65	-672	297	31
-6	-98	-162	501	31
-46	-171	50	403	31
-16	18	140	82	31
-60	126	138	148	31
-57	1	-2	27	31
-50	-90	82	21	31
-15	-61	408	-265	31
21	-10	643	-307	31
-1	12	428	-176	31
-26	114	-158	219	31
-59	269	-543	-246	31
-75	403	-491	-592	31
-90	287	-269	489	31
-73	-55	-119	739	31
-27	-311	31	476	31
6	-287	214	-711	31
6	-287	214	-711	31
5	-278	209	-707	31
3	-269	204	-702	31
1	-260	199	-697	31
-1	-250	194	-692	31
-3	-241	189	-687	31
-5	-232	184	-682	31
-7	-223	179	-677	31
-9	-213	174	-672	31
-11	-204	169	-667	31
-12	-195	164	-662	31
-14	-185	159	-657	31
-16	-176	153	-652	31
-18	-167	148	-647	31
-20	-158	143	-642	31
-22	-148	138	-637	31
-24	-139	133	-632	31
-26	-130	128	-627	31
-28	-121	123	-622	31
-29	-111	118	-617	31
-31	-102	113	-612	31
-33	-93	108	-607	31
-35	-83	103	-602	31
-37	-74	98	-597	31
-39	-65	92	-592	31
-41	-56	87	-587	31
-43	-46	82	-582	31
-45	-37	77	-577	31
-46	-28	72	-572	31
-48	-19	67	-567	31
-50	-9	62	-562	31
-52	0	57	-558	31
-54	9	52	-553	31
-56	19	47	-548	31
-58	28	42	-543	31
-60	37	37	-538	31
-62	46	31	-533	31
-63	56	26	-528	31
-65	65	21	-523	31
-67	74	16	-518	31
-69	84	11	-513	31
-71	93	6	-508	31
-73	102	1	-503	31
-75	111	-4	-498	31
-77	121	-9	-493	31
-79	130	-14	-488	31
-81	139	-19	-483	31
-82	148	-24	-478	31
-84	158	-30	-473	31
-86	167	-35	-468	31
-88	176	-40	-463	31
-90	186	-45	-458	31
-92	195	-50	-453	31
-94	204	-55	-448	31
-96	213	-60	-443	31
-98	223	-65	-438	31
-99	232	-70	-433	31
-101	241	-75	-428	31
-103	250	-80	-423	31
-105	260	-85	-418	31
-107	269	-91	-413	31
-109	278	-96	-409	31
-111	288	-101	-404	31
-113	297	-106	-399	31
-115	306	-111	-394	31
-116	315	-116	-389	31
-118	325	-121	-384	31
-120	334	-126	-379	31
-122	343	-131	-374	31
-124	352	-136	-369	31
-126	362	-141	-364	31
-128	371	-146	-359	31
-130	380	-152	-354	31
-132	390	-157	-349	31
-133	399	-162	-344	31
-135	408	-167	-339	31
-137	417	-172	-334	31
-139	427	-177	-329	31
-141	436	-182	-324	31
-143	445	-187	-319	31
-145	455	-192	-314	31
-147	464	-197	-309	31
-149	473	-202	-304	31
-151	482	-207	-299	31
-152	492	-213	-294	31
-154	501	-218	-289	31
-156	510	-223	-284	31
-158	519	-228	-279	31
-160	529	-233	-274	31
-162	538	-238	-269	31
-164	547	-243	-264	31
-166	557	-248	-260	31
-168	566	-253	-255	31
-169	575	-258	-250	31
-171	584	-263	-245	31
-173	594	-268	-240	31
-175	603	-274	-235	31
-177	612	-279	-230	31
-179	621	-284	-225	31
-181	631	-289	-220	31
-183	640	-294	-215	31
-185	649	-299	-210	31
-186	659	-304	-205	31
-188	668	-309	-200	31
-190	677	-314	-195	31
-192	686	-319	-190	31
-194	696	-324	-185	31
-196	705	-329	-180	31
-198	714	-335	-175	31
-200	723	-340	-170	31
-202	733	-345	-165	31
-203	742	-350	-160	31
-205	751	-355	-155	31
-207	761	-360	-150	31
-209	770	-365	-145	31
-211	779	-370	-140	31
-213	788	-375	-135	31
-215	798	-380	-130	31
-217	807	-385	-125	31
-219	816	-390	-120	31
-221	826	-396	-115	31
-160	262	147	-1347	31
-39	-648	509	-1491	31
-16	-565	434	-661	31
41	163	179	310	31
61	-201	-206	486	31
-75	-1117	-446	441	31
70	-962	-244	321	31
384	-487	47	-307	31
449	-457	234	-54	31
117	-141	272	130	31
-52	163	296	-42	31
-26	206	191	314	31
-113	318	232	67	31
-72	298	313	37	31
-93	417	61	368	31
-131	917	-247	933	31
-244	1557	-456	1305	31
-366	1247	-413	170	31
-280	-117	-105	-1295	31
-54	-1196	166	-1096	31
214	-950	147	-436	31
261	312	100	-706	31
117	798	-80	-216	31
-118	647	-140	227	31
-132	-251	94	37	31
65	-1316	59	-187	31
181	-530	75	133	31
95	761	37	971	31
-127	930	-46	993	31
-127	93	132	564	31
-69	-990	251	-380	31
0	-872	239	-546	31
36	216	-53	-41	31
-67	575	-290	-140	31
43	304	-193	191	31
165	211	-72	-420	31
-27	461	3	-825	31
-127	256	31	-11	31
-59	-752	-103	210	31
42	-1123	-236	-175	31
218	-185	-32	-522	31
194	178	92	-143	31
117	-487	102	291	31
127	-436	171	590	31
102	-365	106	795	31
61	-163	93	504	31
-7	292	56	-43	31
-75	576	102	-602	31
-175	1182	100	-686	31
-175	1182	100	-686	31
-169	1147	102	-687	31
-163	1112	105	-689	31
-157	1076	108	-691	31
-150	1041	110	-692	31
-144	1006	113	-694	31
-138	970	116	-696	31
-131	935	118	-697	31
-125	900	121	-699	31
-119	864	124	-701	31
-112	829	126	-702	31
-106	794	129	-704	31
-100	758	132	-706	31
-94	723	134	-707	31
-87	688	137	-709	31
-81	652	140	-711	31
-75	617	142	-712	31
-68	582	145	-714	31
-62	546	148	-716	31
-56	511	150	-717	31
-49	476	153	-719	31
-43	440	156	-721	31
-37	405	159	-723	31
-31	370	161	-724	31
-24	334	164	-726	31
-18	299	167	-728	31
-12	264	169	-729	31
-5	228	172	-731	31
1	193	175	-733	31
7	158	177	-734	31
14	122	180	-736	31
20	87	183	-738	31
26	52	185	-739	31
32	16	188	-741	31
39	-19	191	-743	31
45	-54	193	-744	31
51	-90	196	-746	31
58	-125	199	-748	31
64	-160	201	-749	31
70	-196	204	-751	31
77	-231	207	-753	31
83	-266	210	-755	31
89	-302	212	-756	31
95	-337	215	-758	31
102	-372	218	-760	31
108	-408	220	-761	31
114	-443	223	-763	31
121	-478	226	-765	31
127	-514	228	-766	31
133	-549	231	-768	31
140	-584	234	-770	31
146	-620	236	-771	31
152	-655	239	-773	31
158	-690	242	-775	31
165	-726	244	-776	31
171	-761	247	-778	31
177	-796	250	-780	31
184	-832	252	-781	31
190	-867	255	-783	31
196	-902	258	-785	31
203	-938	261	-787	31
213	-576	884	-1707	31
61	124	879	-1159	31
-137	485	264	79	31
-226	507	-269	1360	31
-212	629	-510	1065	31
-194	543	-378	-205	31
-137	217	-127	-1273	31
-103	-497	61	-1330	31
20	-1031	180	-175	31
299	-798	-136	408	31
234	719	-132	424	31
-160	2094	197	69	31
-360	794	55	184	31
-122	-1645	-221	175	31
465	-2067	-148	-156	31
784	-892	-38	-140	31
530	-160	-166	-468	31
207	-105	-165	-194	31
145	643	-100	916	31
131	405	-45	1265	31
32	306	-85	590	31
-73	322	36	-7	31
-149	44	176	-547	31
-167	214	234	-734	31
-133	77	434	83	31
-76	201	316	797	31
-72	184	204	276	31
-87	209	33	65	31
-95	234	-361	652	31
-52	83	-476	304	31
-31	25	-237	-819	31
-119	-155	82	-1463	31
-183	-122	230	-951	31
-141	-172	155	-750	31
-103	-178	-89	-536	31
-87	-158	-142	-123	31
-29	-157	-22	-37	31
-8	-100	109	617	31
5	-50	370	538	31
-50	262	590	431	31
-127	492	337	353	31
-128	383	-92	148	31
-88	-56	-231	271	31
32	-641	-297	105	31
170	-785	-433	534	31
213	-662	-575	309	31
142	-555	-299	-259	31
48	-173	69	-299	31
-24	-105	134	77	31
-16	-98	276	97	31
22	42	306	-578	31
14	-49	158	-90	31
-6	23	-55	650	31
-36	20	-102	1209	31
-17	195	21	502	31
-64	473	-36	-703	31
-126	443	-18	-794	31
-91	148	-129	-777	31
24	-313	-257	-24	31
164	-355	-179	559	31
143	62	-27	530	31
5	345	267	207	31
-126	486	208	-526	31
-188	632	5	-936	31
-175	465	-219	-245	31
-69	208	-500	246	31
46	56	-340	-427	31
30	-133	-191	-740	31
118	-1071	76	-680	31
264	-1848	480	166	31
218	-981	433	729	31
194	-293	279	540	31
145	-165	297	-115	31
-4	308	487	-348	31
-51	313	542	567	31
-95	134	331	474	31
-62	-7	-252	663	31
14	-152	-790	854	31
0	-130	-602	667	31
-40	60	-131	289	31
-90	369	41	-132	31
-76	362	-140	498	31
-46	198	-87	390	31
12	44	77	-592	31
77	308	312	-1967	31
44	570	546	-1358	31
-138	797	45	-185	31
-337	1610	-16	-889	31
-320	1859	-105	448	31
-295	736	-598	701	31
-115	-1256	-43	-183	31
333	-2210	392	523	31
577	-1751	338	597	31
431	-728	252	886	31
176	-13	-111	959	31
115	198	-345	673	31
17	166	-338	-268	31
-220	-2	-347	-165	31
-198	-87	-365	1053	31
-56	-60	-196	-125	31
-39	79	-11	-1204	31
7	232	168	-1282	31
47	388	310	-1110	31
-29	661	237	218	31
-148	518	72	991	31
-103	-19	-146	1273	31
31	-521	-259	1204	31
94	-439	-130	-546	31
159	-112	-114	-2374	31
85	-85	-85	-1771	31
-49	105	61	-253	31
-94	307	315	-39	31
-134	452	504	88	31
-117	374	375	-183	31
-52	65	187	103	31
50	160	17	181	31
-19	712	32	86	31
-188	1187	27	421	31
-183	933	-59	527	31
-118	-89	-34	690	31
82	-1479	89	442	31
277	-1864	219	-24	31
331	-1342	148	-225	31
334	-886	-81	-388	31
143	-131	-400	-471	31
-27	53	-328	86	31
-80	367	-163	722	31
-186	1044	-378	1179	31
-252	1246	-635	1333	31
-226	1005	-737	1406	31
-83	6	-579	762	31
88	-405	-302	130	31
117	17	323	-186	31
-14	603	828	-2017	31
-311	1546	724	-2301	31
-534	1351	797	-1697	31
-385	-642	891	-660	31
68	-2188	403	848	31
567	-1992	-206	-157	31
668	-764	-175	439	31
414	17	-69	1151	31
234	504	-236	1063	31
6	887	-279	1421	31
-338	972	-262	596	31
-388	823	-217	-323	31
-177	264	-19	-1581	31
88	-176	-83	-1246	31
291	-396	-370	-1080	31
272	-139	-136	-892	31
194	110	196	-199	31
-44	72	172	-262	31
-248	-17	-306	509	31
-151	-414	-433	1294	31
-101	-550	14	1795	31
-89	-334	14	357	31
-6	-37	136	-2099	31
23	205	401	-1369	31
24	504	322	463	31
-37	1026	186	258	31
-247	1225	22	228	31
-299	499	-76	-85	31
-135	-525	-125	-655	31
49	-343	71	-1244	31
65	473	261	-353	31
-75	1	349	-148	31
145	-1711	345	-643	31
516	-2131	-7	-80	31
504	-1358	-193	-506	31
287	-755	-364	600	31
156	-409	-471	503	31
34	111	-267	254	31
-65	343	60	128	31
-128	544	221	413	31
-231	981	-70	1360	31
-327	1302	-241	-56	31
-358	839	129	-957	31
-233	-232	520	-980	31
-32	-884	472	704	31
221	-853	428	1142	31
247	-421	170	661	31
46	-111	-481	759	31
9	183	-840	789	31
-51	333	-861	1146	31
-103	-49	-594	611	31
-94	-154	-70	-249	31
-58	-215	484	-2220	31
0	-288	623	-1577	31
-12	-89	462	-428	31
-19	84	172	-56	31
-21	182	-243	1054	31
-4	259	-470	714	31
-51	307	-418	748	31
-86	62	-49	501	31
-16	-266	81	902	31
64	-171	-44	1049	31
104	474	-65	567	31
-49	892	32	-1538	31
-190	335	254	-2065	31
-145	-846	261	6	31
-145	-846	261	6	31
-144	-835	260	-4	31
-143	-824	259	-14	31
-142	-812	257	-24	31
-141	-801	256	-35	31
-140	-790	254	-45	31
-139	-778	253	-55	31
-138	-767	252	-66	31
-137	-756	250	-76	31
-136	-744	249	-86	31
-135	-733	247	-97	31
-134	-722	246	-107	31
-133	-710	244	-117	31
-132	-699	243	-128	31
-131	-688	242	-138	31
-130	-676	240	-148	31
-129	-665	239	-158	31
-128	-654	237	-169	31
-127	-642	236	-179	31
-126	-631	235	-189	31
-125	-620	233	-200	31
-124	-608	232	-210	31
-123	-597	230	-220	31
-122	-586	229	-231	31
-121	-574	227	-241	31
-120	-563	226	-251	31
-119	-552	225	-262	31
-118	-540	223	-272	31
-117	-529	222	-282	31
-116	-518	220	-292	31
-115	-506	219	-303	31
-114	-495	218	-313	31
-113	-484	216	-323	31
-112	-472	215	-334	31
-111	-461	213	-344	31
-110	-450	212	-354	31
-109	-438	210	-365	31
-108	-427	209	-375	31
-107	-416	208	-385	31
-106	-404	206	-396	31
-105	-393	205	-406	31
-104	-382	203	-416	31
-103	-370	202	-426	31
-102	-359	201	-437	31
-101	-348	199	-447	31
-100	-336	198	-457	31
-99	-325	196	-468	31
-98	-314	195	-478	31
-97	-302	193	-488	31
-96	-291	192	-499	31
-95	-280	191	-509	31
-94	-268	189	-519	31
-93	-257	188	-530	31
-92	-246	186	-540	31
-91	-234	185	-550	31
-90	-223	184	-560	31
-89	-212	182	-571	31
-88	-200	181	-581	31
-87	-189	179	-591	31
-86	-178	178	-602	31
-85	-166	176	-612	31
-84	-155	175	-622	31
-83	-144	174	-633	31
-82	-132	172	-643	31
-81	-121	171	-653	31
-80	-110	169	-664	31
-79	-98	168	-674	31
-78	-87	167	-684	31
-77	-76	165	-694	31
-76	-64	164	-705	31
-75	-53	162	-715	31
-74	-42	161	-725	31
-73	-30	159	-736	31
-72	-19	158	-746	31
-71	-8	157	-756	31
-70	4	155	-767	31
-69	15	154	-777	31
-68	26	152	-787	31
-67	38	151	-798	31
-66	49	150	-808	31
-65	60	148	-818	31
-64	72	147	-828	31
-63	83	145	-839	31
-62	94	144	-849	31
-61	106	142	-859	31
-60	117	141	-870	31
-59	128	140	-880	31
-58	140	138	-890	31
-57	151	137	-901	31
-56	162	135	-911	31
-55	174	134	-921	31
-54	185	133	-932	31
-53	196	131	-942	31
-52	208	130	-952	31
-51	219	128	-962	31
-50	230	127	-973	31
-49	242	125	-983	31
-48	253	124	-993	31
-47	264	123	-1004	31
-46	276	121	-1014	31
-45	287	120	-1024	31
-44	298	118	-1035	31
-43	310	117	-1045	31
-42	321	116	-1055	31
-41	332	114	-1066	31
-40	344	113	-1076	31
-39	355	111	-1086	31
-38	366	110	-1096	31
-37	378	108	-1107	31
-36	389	107	-1117	31
-35	400	106	-1127	31
-34	412	104	-1138	31
-33	423	103	-1148	31
-32	434	101	-1158	31
-31	446	100	-1169	31
-30	457	99	-1179	31
-29	468	97	-1189	31
-28	480	96	-1200	31
-27	491	94	-1210	31
-26	502	93	-1220	31
-25	514	91	-1231	31
54	355	-231	1154	31
-52	198	-420	822	31
-41	-307	-332	-467	31
62	-506	231	-707	31
-88	-17	686	-332	31
-153	80	448	2	31
-127	110	132	416	31
-75	253	-368	1340	31
70	490	-126	701	31
-19	758	573	-1439	31
-175	655	451	-2166	31
-145	-119	85	-1013	31
-14	-615	-486	-245	31
159	-417	-403	-31	31
118	-57	-219	194	31
-6	-126	-218	172	31
69	-332	49	345	31
67	532	-8	501	31
-60	1137	93	743	31
-224	1066	168	705	31
-267	247	338	243	31
-92	-1244	238	-570	31
126	-1221	-248	-651	31
295	-441	-603	277	31
215	14	-476	631	31
79	347	119	1111	31
5	277	-37	1455	31
-99	-143	-272	502	31
-229	163	-226	-1217	31
-294	1226	-210	-2222	31
-237	571	285	-1899	31
-198	-930	608	-782	31
157	-1497	446	-211	31
511	-1024	335	-70	31
423	-146	368	425	31
165	77	45	186	31
-39	432	-459	-162	31
-54	195	-507	133	31
57	-289	-47	671	31
101	-269	348	522	31
30	-34	86	-310	31
5	300	-226	284	31
-115	421	-282	996	31
-226	834	-345	810	31
-202	733	-191	608	31
-135	192	158	186	31
48	-332	384	123	31
174	-338	310	197	31
101	52	67	405	31
-64	-54	-240	-628	31
-96	140	-67	-1696	31
-114	513	74	-970	31
-112	580	-191	-120	31
-17	132	-185	59	31
50	-446	124	-132	31
76	-315	618	-127	31
33	11	987	-253	31
-38	-181	673	148	31
-158	-480	-35	19	31
-158	-480	-35	19	31
-158	-471	-34	-9	31
-157	-462	-33	-38	31
-156	-453	-32	-67	31
-155	-444	-30	-96	31
-154	-434	-29	-125	31
-153	-425	-28	-153	31
-152	-416	-26	-182	31
-151	-407	-25	-211	31
-150	-398	-24	-240	31
-149	-388	-22	-269	31
-148	-379	-21	-297	31
-147	-370	-20	-326	31
-147	-361	-19	-355	31
-146	-352	-17	-384	31
-145	-342	-16	-413	31
-144	-333	-15	-441	31
-143	-324	-13	-470	31
-142	-315	-12	-499	31
-141	-306	-11	-528	31
-140	-296	-9	-557	31
-139	-287	-8	-585	31
-138	-278	-7	-614	31
-137	-269	-6	-643	31
-136	-260	-4	-672	31
-136	-250	-3	-701	31
-135	-241	-2	-729	31
-134	-232	0	-758	31
-133	-223	1	-787	31
-132	-214	2	-816	31
-131	-204	4	-845	31
-130	-195	5	-873	31
-129	-186	6	-902	31
-128	-177	7	-931	31
-127	-168	9	-960	31
-126	-158	10	-989	31
-125	-149	11	-1017	31
-125	-140	13	-1046	31
-124	-131	14	-1075	31
-123	-122	15	-1104	31
-122	-112	17	-1133	31
-121	-103	18	-1161	31
-120	-94	19	-1190	31
-119	-85	20	-1219	31
-118	-76	22	-1248	31
-117	-66	23	-1277	31
-116	-57	24	-1305	31
-115	-48	26	-1334	31
-114	-39	27	-1363	31
-114	-30	28	-1392	31
-113	-20	30	-1421	31
-112	-11	31	-1449	31
-111	-2	32	-1478	31
-110	7	33	-1507	31
-109	16	35	-1536	31
-108	26	36	-1565	31
-107	35	37	-1593	31
-106	44	39	-1622	31
-105	53	40	-1651	31
-104	62	41	-1680	31
-103	72	43	-1709	31
-173	1220	130	-1247	31
-301	1119	-114	-790	31
-190	-31	-22	-1216	31
34	-1307	-9	-451	31
221	-1571	81	399	31
277	-651	-49	419	31
151	-295	-65	498	31
-9	-67	216	653	31
-17	111	144	661	31
16	90	186	-100	31
26	220	223	3	31
66	135	22	870	31
53	161	-156	883	31
24	117	-437	1114	31
-67	141	-529	390	31
-110	411	-365	-557	31
-153	928	-208	-651	31
-242	1359	-45	-961	31
-218	674	337	-813	31
-60	-628	765	29	31
175	-1208	740	-449	31
281	-808	376	-654	31
70	-47	-45	292	31
-193	632	-62	97	31
-143	796	14	371	31
-79	320	-35	513	31
60	-343	123	185	31
259	-963	131	-273	31
259	-1162	-52	-602	31
145	-270	-149	99	31
-25	244	-163	460	31
-48	-387	-7	335	31
37	-640	-5	672	31
88	7	-187	840	31
4	982	8	-72	31
-141	770	228	-1487	31
-236	-127	82	-813	31
-151	-691	-289	231	31
57	-712	-166	-713	31
57	-712	-166	-713	31
55	-700	-166	-701	31
52	-687	-166	-688	31
49	-674	-165	-676	31
46	-661	-165	-663	31
43	-649	-165	-651	31
40	-636	-164	-638	31
37	-623	-164	-626	31
34	-610	-164	-613	31
31	-598	-163	-601	31
28	-585	-163	-588	31
25	-572	-162	-576	31
22	-559	-162	-563	31
19	-547	-162	-550	31
16	-534	-161	-538	31
13	-521	-161	-525	31
10	-508	-161	-513	31
7	-496	-160	-500	31
4	-483	-160	-488	31
1	-470	-159	-475	31
-2	-457	-159	-463	31
-5	-445	-159	-450	31
-8	-432	-158	-438	31
-11	-419	-158	-425	31
-13	-406	-158	-412	31
-16	-394	-157	-400	31
-19	-381	-157	-387	31
-22	-368	-156	-375	31
-25	-355	-156	-362	31
-28	-343	-156	-350	31
-31	-330	-155	-337	31
-34	-317	-155	-325	31
-37	-304	-155	-312	31
-40	-292	-154	-300	31
-43	-279	-154	-287	31
-46	-266	-153	-274	31
-49	-253	-153	-262	31
-52	-240	-153	-249	31
-55	-228	-152	-237	31
-58	-215	-152	-224	31
-61	-202	-152	-212	31
-64	-189	-151	-199	31
-67	-177	-151	-187	31
-70	-164	-151	-174	31
-73	-151	-150	-162	31
-76	-138	-150	-149	31
-79	-126	-149	-137	31
-81	-113	-149	-124	31
-84	-100	-149	-111	31
-87	-87	-148	-99	31
-90	-75	-148	-86	31
-93	-62	-148	-74	31
-96	-49	-147	-61	31
-99	-36	-147	-49	31
-102	-24	-146	-36	31
-105	-11	-146	-24	31
-108	2	-146	-11	31
-111	15	-145	1	31
-114	27	-145	14	31
-117	40	-145	27	31
-120	53	-144	39	31
-123	66	-144	52	31
-126	78	-143	64	31
-129	91	-143	77	31
-132	104	-143	89	31
-135	117	-142	102	31
-138	129	-142	114	31
-141	142	-142	127	31
-144	155	-141	139	31
-147	168	-141	152	31
-150	181	-140	165	31
-183	8	2	620	31
-314	-134	-20	726	31
-383	-239	-62	-159	31
-201	-105	-112	-1443	31
69	-112	-64	-1931	31
293	-98	-25	-572	31
586	-9	85	740	31
512	34	431	797	31
143	183	513	358	31
1	245	390	-862	31
-84	327	-33	-1017	31
-123	294	-273	105	31
-136	37	-158	1173	31
-155	-49	-112	1676	31
-123	-30	-115	370	31
-69	-50	-142	-1599	31
50	-224	-21	-1067	31
155	-419	-11	80	31
163	-179	-13	-33	31
52	21	-34	312	31
-67	-35	-100	175	31
-92	45	-18	95	31
-56	27	-2	-134	31
-52	45	74	-185	31
-14	100	139	258	31
-9	45	87	15	31
-171	89	-66	106	31
-276	262	-186	78	31
-140	613	-146	364	31
-24	565	36	602	31
2	-6	201	610	31
218	-449	139	603	31
325	-474	158	-155	31
102	-85	183	-640	31
-46	-44	-55	-327	31
-31	-251	-358	-309	31
-147	-219	-195	-322	31
-148	-52	147	-32	31
-35	181	87	-548	31
-85	-53	5	-158	31
2	-294	-250	80	31
276	-113	-380	38	31
307	42	-132	261	31
-19	70	89	-258	31
-138	-46	347	-412	31
-128	-212	123	-160	31
-113	-138	-353	666	31
207	-6	-454	867	31
368	12	-104	477	31
368	12	-104	477	31
355	12	-107	477	31
341	12	-110	477	31
327	13	-114	477	31
314	13	-117	477	31
300	14	-120	477	31
286	14	-124	477	31
272	14	-127	477	31
259	15	-130	477	31
245	15	-134	477	31
231	16	-137	477	31
218	16	-141	477	31
204	16	-144	477	31
190	17	-147	477	31
176	17	-151	477	31
163	18	-154	477	31
149	18	-157	477	31
135	19	-161	477	31
122	19	-164	477	31
108	19	-168	477	31
94	20	-171	477	31
80	20	-174	477	31
67	21	-178	477	31
53	21	-181	477	31
39	21	-184	477	31
26	22	-188	477	31
12	22	-191	477	31
-2	23	-195	477	31
-16	23	-198	477	31
-29	24	-201	477	31
-43	24	-205	477	31
-57	24	-208	477	31
-70	25	-211	477	31
-84	25	-215	477	31
-98	26	-218	477	31
-112	26	-222	478	31
-125	26	-225	478	31
-139	27	-228	478	31
-153	27	-232	478	31
-166	28	-235	478	31
-180	28	-238	478	31
-194	28	-242	478	31
-208	29	-245	478	31
-221	29	-248	478	31
-235	30	-252	478	31
-249	30	-255	478	31
-262	31	-259	478	31
-276	31	-262	478	31
-290	31	-265	478	31
-304	32	-269	478	31
-317	32	-272	478	31
-331	33	-275	478	31
-345	33	-279	478	31
-358	33	-282	478	31
-372	34	-286	478	31
-386	34	-289	478	31
-400	35	-292	478	31
-413	35	-296	478	31
-427	36	-299	478	31
-441	36	-302	478	31
-454	36	-306	478	31
-468	37	-309	478	31
-482	37	-313	478	31
-496	38	-316	478	31
-509	38	-319	478	31
-523	38	-323	478	31
-537	39	-326	478	31
-550	39	-329	478	31
-564	40	-333	478	31
-578	40	-336	478	31
-592	41	-340	479	31
-456	156	-446	606	31
-257	184	-140	261	31
191	360	151	-95	31
795	204	297	-397	31
618	-49	335	538	31
-61	-344	171	463	31
-228	-280	-292	623	31
239	-87	-277	-687	31
370	-176	90	-2121	31
370	-176	90	-2121	31
363	-176	92	-2095	31
356	-175	95	-2069	31
348	-174	97	-2043	31
341	-174	100	-2017	31
333	-173	103	-1991	31
326	-172	105	-1965	31
318	-171	108	-1938	31
311	-171	111	-1912	31
303	-170	113	-1886	31
296	-169	116	-1860	31
288	-168	119	-1834	31
281	-168	121	-1808	31
274	-167	124	-1781	31
266	-166	127	-1755	31
259	-166	129	-1729	31
251	-165	132	-1703	31
244	-164	135	-1677	31
236	-163	137	-1651	31
229	-163	140	-1625	31
221	-162	143	-1598	31
214	-161	145	-1572	31
206	-160	148	-1546	31
199	-160	151	-1520	31
192	-159	153	-1494	31
184	-158	156	-1468	31
177	-158	159	-1441	31
169	-157	161	-1415	31
162	-156	164	-1389	31
154	-155	167	-1363	31
147	-155	169	-1337	31
139	-154	172	-1311	31
132	-153	175	-1284	31
124	-152	177	-1258	31
117	-152	180	-1232	31
109	-151	183	-1206	31
102	-150	185	-1180	31
95	-150	188	-1154	31
87	-149	190	-1128	31
80	-148	193	-1101	31
72	-147	196	-1075	31
65	-147	198	-1049	31
57	-146	201	-1023	31
50	-145	204	-997	31
42	-144	206	-971	31
35	-144	209	-944	31
27	-143	212	-918	31
20	-142	214	-892	31
13	-142	217	-866	31
5	-141	220	-840	31
-2	-140	222	-814	31
-10	-139	225	-787	31
-17	-139	228	-761	31
-25	-138	230	-735	31
-32	-137	233	-709	31
-40	-136	236	-683	31
-47	-136	238	-657	31
-55	-135	241	-631	31
-62	-134	244	-604	31
-69	-134	246	-578	31
-77	-133	249	-552	31
-84	-132	252	-526	31
-92	-131	254	-500	31
-99	-131	257	-474	31
-107	-130	260	-447	31
-114	-129	262	-421	31
-122	-128	265	-395	31
-129	-128	268	-369	31
-137	-127	270	-343	31
-144	-126	273	-317	31
-152	-125	276	-290	31
39	62	625	-541	31
208	-140	203	-326	31
112	-378	-227	380	31
159	-645	-221	568	31
257	-385	154	640	31
-31	-42	251	638	31
143	1	478	975	31
-135	165	383	1080	31
-360	178	127	514	31
-159	146	190	-948	31
-284	70	-121	-1286	31
-161	1	-641	-750	31
-48	143	-721	-594	31
120	313	-352	-300	31
-75	457	-54	-321	31
-472	460	-21	127	31
-385	217	154	498	31
-285	-164	136	-258	31
-221	-394	16	-355	31
29	-343	343	166	31
290	-59	546	415	31
135	12	579	396	31
-41	-84	613	512	31
211	80	1071	330	31
514	107	1329	14	31
319	81	462	-177	31
-118	-41	-625	-487	31
-55	-163	-1699	9	31
49	-48	-1984	385	31
-1	-24	-730	283	31
-65	24	-24	213	31
-72	60	-324	107	31
-126	108	-138	111	31
-315	194	-52	168	31
-267	207	110	79	31
-208	81	194	99	31
-162	-108	92	188	31
-59	-70	327	247	31
94	132	429	262	31
220	307	635	10	31
110	198	559	-603	31
129	-152	173	-868	31
287	-398	-416	47	31
197	-259	-572	55	31
109	131	-358	251	31
103	149	-380	388	31
-8	-102	4	-792	31
-28	-325	73	-385	31
3	-375	29	-103	31
-5	-99	248	-231	31
-30	1	312	181	31
-75	19	644	329	31
-94	112	960	603	31
-154	99	790	36	31
-239	186	59	-233	31
-302	384	-861	370	31
-282	695	-1690	-211	31
-163	763	-1312	-514	31
-70	394	-365	10	31
148	-248	-53	69	31
302	-816	538	-382	31
172	-719	740	-1043	31
222	-351	777	-148	31
239	-126	533	-382	31
87	-143	-8	-1285	31
67	-470	-332	-64	31
95	-442	-640	762	31
57	3	-154	1325	31
-138	300	136	1340	31
-148	272	82	122	31
-76	-13	214	-893	31
-2	-250	105	-393	31
146	-14	-27	-107	31
57	328	-255	-226	31
31	337	-249	12	31
-85	312	54	-463	31
-289	231	187	26	31
-7	172	268	312	31
146	90	199	673	31
-112	-331	-72	1208	31
-67	-574	-269	1229	31
55	-13	-409	1323	31
77	646	-213	583	31
176	596	41	94	31
44	156	133	-1493	31
-65	-495	304	-2449	31
26	-785	108	-1279	31
96	-580	110	132	31
70	-420	889	785	31
19	-145	1810	173	31
-24	176	1313	-176	31
-136	554	-400	-4	31
-274	785	-1618	-658	31
-318	594	-2089	350	31
-206	88	-1190	1269	31
-144	-357	-603	51	31
-73	-273	-382	-156	31
8	264	297	220	31
-23	394	227	137	31
21	-201	366	-290	31
168	-619	142	-1012	31
383	-834	253	-925	31
173	-560	524	-154	31
-140	284	214	162	31
-118	592	33	431	31
-256	552	-168	926	31
-113	911	-125	115	31
-39	1592	-75	-900	31
-168	1875	133	-362	31
45	1100	21	1134	31
91	-502	11	1085	31
57	-1334	104	590	31
161	-990	30	606	31
368	-699	240	169	31
230	-1226	16	1218	31
32	-1965	-100	-260	31
302	-1287	223	-2502	31
350	-72	144	-1126	31
314	329	196	603	31
255	516	443	200	31
92	231	32	-789	31
-65	-41	-406	-932	31
-155	-114	-458	-352	31
-221	585	-57	568	31
-447	1576	104	1445	31
-449	1021	-221	1049	31
-381	-340	-278	764	31
9	-1601	-296	292	31
446	-1310	10	-625	31
225	-312	161	-350	31
154	-128	7	-6	31
223	500	79	-484	31
22	286	125	-284	31
-36	-295	35	297	31
3	-175	194	-237	31
-42	157	548	-310	31
-131	532	540	90	31
-193	80	150	738	31
-145	-303	-540	1686	31
3	-75	-579	1001	31
169	474	24	-27	31
-11	539	75	-1952	31
-218	134	-60	-2328	31
-124	61	-243	-655	31
-143	21	-274	-464	31
-113	79	154	21	31
-165	671	171	314	31
-368	1694	-75	488	31
-503	1628	-117	493	31
-516	386	-196	532	31
-182	-973	-191	1514	31
310	-1428	-110	476	31
678	-675	57	-227	31
530	-335	-11	397	31
86	334	-289	1189	31
-99	1306	-115	-789	31
-239	401	132	-2403	31
-171	-1004	73	-39	31
170	-1336	-93	-552	31
350	-1293	191	-1924	31
277	-1261	515	-581	31
201	-921	472	-627	31
240	-115	419	-178	31
144	-2	243	479	31
4	255	54	233	31
-129	1374	-159	392	31
-178	1329	-284	855	31
-128	289	-279	1621	31
-112	-821	-113	1526	31
74	-566	-274	650	31
130	477	-649	430	31
18	-52	-173	347	31
-27	-513	791	-482	31
-24	-439	1237	-2092	31
-12	-250	639	-2240	31
-98	32	-84	-1171	31
-150	75	-282	-668	31
-143	620	-437	93	31
-105	379	-409	635	31
-55	-119	-491	698	31
4	273	-239	607	31
62	475	-85	354	31
44	318	-184	281	31
-11	-293	14	123	31
70	-704	-7	99	31
170	-239	14	126	31
120	74	-81	558	31
75	55	71	1101	31
-7	176	99	1138	31
-51	118	-183	146	31
-38	190	-90	-327	31
-59	177	-8	-734	31
-64	100	126	-1257	31
-67	171	172	-483	31
-39	102	148	-411	31
-47	146	201	294	31
-101	115	230	981	31
-147	112	365	879	31
-186	77	243	727	31
-221	4	-140	-84	31
-110	55	-403	-42	31
204	37	-490	423	31
285	30	-244	-2	31
79	-47	-54	-933	31
83	-78	93	-1409	31
36	-25	342	-2009	31
-35	81	-56	-1266	31
79	112	-214	-157	31
-62	-24	185	69	31
-188	-118	316	581	31
-39	-197	477	535	31
111	-184	514	693	31
141	-54	265	549	31
219	7	-285	195	31
87	-1	-597	-406	31
-210	-8	-659	-500	31
-142	-57	-804	273	31
19	-4	-334	-2	31
176	98	-102	195	31
193	55	-239	740	31
88	-16	0	952	31
67	-125	118	895	31
-37	-137	620	243	31
-113	-29	1297	-589	31
-193	36	1225	-1409	31
-244	239	20	-386	31
-148	480	-1256	807	31
-92	381	-1337	1043	31
-118	-71	-434	1122	31
44	-504	572	867	31
127	-458	383	3	31
-50	-105	287	-2053	31
-39	-104	436	-2208	31
66	-234	-113	-622	31
352	-166	-317	806	31
446	-113	-191	296	31
97	126	-21	-314	31
47	282	1	344	31
-34	20	53	-467	31
-97	-193	22	44	31
51	-163	45	284	31
26	-9	224	7	31
-120	145	351	454	31
-388	243	515	141	31
-446	302	472	578	31
-439	330	676	923	31
-423	203	777	1143	31
-213	-88	-117	302	31
215	-335	-1128	-1390	31
463	-418	-1778	-1317	31
593	-157	-1663	-304	31
842	-3	-418	-578	31
478	-38	180	-423	31
117	34	-24	33	31
87	-8	193	36	31
-111	114	228	351	31
-180	491	128	246	31
-332	831	121	473	31
-538	544	282	905	31
-466	-294	318	1565	31
-252	-828	158	1433	31
158	-694	218	-120	31
604	-230	164	-1682	31
532	-87	186	-1381	31
84	-16	-132	179	31
-76	9	-424	-204	31
-80	73	345	-2027	31
-50	138	749	-1806	31
-117	-4	310	-703	31
-166	-41	-1	-305	31
-46	-208	-322	628	31
-52	-104	-172	307	31
60	94	-45	430	31
-120	58	-97	519	31
-251	216	41	287	31
-146	333	24	512	31
-256	490	107	281	31
-122	360	81	417	31
-49	-36	100	184	31
39	-306	135	295	31
107	-429	173	299	31
201	-167	73	129	31
319	-112	-218	-137	31
142	-121	-194	-229	31
85	12	9	70	31
-9	-10	107	-14	31
-112	127	-95	229	31
-139	224	-289	360	31
-235	191	-372	102	31
-158	85	-207	-300	31
66	-75	17	-388	31
156	-145	-7	-393	31
31	-153	-49	456	31
11	-63	-309	1084	31
193	54	-272	231	31
182	37	-6	-400	31
12	31	122	-1249	31
10	173	248	-712	31
-77	280	68	149	31
-169	216	130	524	31
-113	-4	390	1279	31
-125	-114	386	987	31
-26	40	138	521	31
60	61	-335	-325	31
-25	-77	-217	-1517	31
-66	-188	167	-1699	31
-34	-262	340	-628	31
-180	-170	326	-738	31
-230	-108	-171	-446	31
-95	-76	-258	795	31
59	-63	36	1143	31
426	31	12	537	31
545	150	-153	-201	31
179	119	-108	549	31
-200	97	-146	302	31
-156	-12	-319	494	31
-108	-71	-198	818	31
-169	-39	-4	-117	31
-44	226	82	-963	31
4	421	-45	-944	31
173	113	-118	44	31
310	-424	303	127	31
196	-785	768	168	31
139	-307	696	-240	31
-60	21	262	-254	31
-278	-53	-261	77	31
-177	189	-588	-52	31
-7	391	-533	440	31
59	685	-486	183	31
-11	357	-491	7	31
-11	-350	-251	122	31
67	-458	23	-194	31
-49	223	55	-378	31
-105	617	-32	-366	31
-31	-141	123	-272	31
-3	-690	505	170	31
189	-838	650	613	31
138	-432	383	133	31
-50	-11	-46	-3	31
-18	-47	-428	248	31
-99	105	-326	132	31
-100	103	32	170	31
-104	234	50	98	31
-120	258	187	209	31
45	205	226	335	31
74	188	-36	249	31
-17	17	-140	181	31
12	19	4	-406	31
0	-57	122	-69	31
-51	-11	-291	1389	31
-52	60	-596	986	31
-146	11	-291	-450	31
-201	62	179	-1825	31
-148	34	676	-1522	31
-98	15	768	98	31
-78	77	200	-793	31
77	235	-200	-161	31
122	335	-150	240	31
66	176	11	-560	31
200	-87	117	366	31
133	-348	-6	217	31
138	-307	-151	571	31
251	-107	-178	544	31
116	-80	-132	726	31
49	22	-304	1130	31
27	47	-333	292	31
-24	24	-240	-835	31
-35	38	-170	-1137	31
-55	17	9	-347	31
-62	41	151	85	31
-62	-4	149	502	31
-57	-9	60	147	31
-34	16	90	428	31
-20	19	5	281	31
-34	27	76	-125	31
-69	-3	79	133	31
-123	-11	89	229	31
-162	11	89	835	31
-144	113	-45	50	31
-81	532	36	-1735	31
-41	1066	16	-1539	31
-136	877	194	79	31
-204	-140	393	-170	31
-173	-1234	236	-146	31
-38	-1291	-9	236	31
294	-461	-284	62	31
502	-212	-348	166	31
418	-140	-60	-662	31
170	-10	73	-50	31
-65	-100	-177	1448	31
-50	3	-51	557	31
131	-6	545	-1289	31
82	29	625	-1368	31
-35	31	42	89	31
14	22	-322	-25	31
-103	142	-486	-104	31
-79	113	-626	409	31
-5	128	-572	354	31
-178	188	-527	1041	31
-256	377	-123	603	31
-244	461	545	-21	31
-165	192	881	-1059	31
42	-77	737	-851	31
308	-284	194	375	31
258	-312	-403	-459	31
108	-184	-721	282	31
108	-227	-386	1042	31
108	-85	-32	1303	31
107	179	-44	952	31
-5	137	98	-694	31
-45	21	231	-1286	31
-74	-163	235	-31	31
-76	-242	50	1059	31
-20	-79	60	-444	31
-32	-7	38	-937	31
-39	20	-88	-589	31
-64	52	39	-127	31
-37	76	55	125	31
-28	136	53	303	31
-52	110	-156	660	31
-52	57	-331	485	31
-29	42	-173	633	31
-46	80	14	358	31
-201	109	202	-135	31
-188	131	318	-1279	31
-43	279	340	-1358	31
65	232	518	-576	31
198	-27	512	-107	31
147	-305	13	582	31
88	-469	-578	782	31
122	-164	-845	1230	31
109	28	-394	1559	31
11	-86	314	539	31
-79	-71	318	-737	31
-60	-74	-145	-1753	31
-31	107	-114	-1515	31
-22	285	235	-518	31
-32	186	274	-456	31
-22	-24	8	202	31
-19	-272	-50	219	31
-57	-208	146	594	31
-121	168	159	49	31
-171	286	-119	-598	31
-132	40	-408	362	31
27	-244	-165	-244	31
247	-384	135	-12	31
313	-141	107	528	31
159	74	9	1189	31
37	16	-205	1479	31
-3	64	-445	258	31
-72	99	-175	-1062	31
-79	328	401	-997	31
-90	508	360	19	31
-111	324	-156	34	31
-115	-57	-487	24	31
-5	-536	-186	-224	31
135	-498	47	-39	31
152	-274	2	518	31
103	-210	1	583	31
42	10	-125	587	31
36	65	127	416	31
4	97	273	-280	31
-5	275	417	-1280	31
-38	467	258	-1146	31
-94	512	-169	-61	31
-117	260	4	-42	31
-150	49	26	236	31
-122	-79	-93	1250	31
-60	-199	-78	6	31
-54	-381	-89	-500	31
-54	-345	-98	460	31
26	-82	-4	-380	31
64	-198	29	-602	31
80	-272	-11	224	31
70	-20	35	537	31
34	69	-24	682	31
70	-31	-69	406	31
79	-58	-8	-348	31
122	-32	117	-766	31
41	41	221	-466	31
-75	19	256	-127	31
-48	-46	104	180	31
-91	-74	-229	593	31
-53	-4	-481	444	31
-47	480	-591	-423	31
-110	715	-431	-510	31
-51	525	196	636	31
50	140	821	383	31
104	-474	611	-171	31
118	-791	205	-938	31
146	-694	42	-1209	31
77	-199	-72	183	31
-40	160	161	49	31
-73	123	103	559	31
-108	-33	-201	295	31
-90	-196	-303	-257	31
-59	-112	-434	489	31
-40	-109	-355	482	31
46	-19	-163	623	31
59	232	-58	-280	31
11	326	238	-313	31
29	433	223	1537	31
95	267	-307	1528	31
44	-52	-328	-811	31
-26	-132	333	-2422	31
-37	169	645	-1039	31
-86	642	325	928	31
-105	882	46	737	31
-99	499	-343	365	31
-56	-544	-382	-45	31
28	-1034	-67	528	31
98	-574	-60	805	31
169	-65	76	4	31
82	451	26	-1151	31
-138	767	-36	-1684	31
-154	175	77	-80	31
-101	-563	92	104	31
54	-1039	254	234	31
254	-857	254	326	31
218	-310	79	-229	31
188	-226	-138	72	31
90	74	-268	85	31
-29	108	-65	1	31
-37	90	143	174	31
-60	170	209	435	31
-42	66	44	-176	31
-53	163	-72	-194	31
-77	104	-90	-11	31
-85	259	-97	243	31
-93	608	75	1010	31
-76	675	-74	1087	31
-94	278	-197	407	31
-96	100	-122	-1003	31
-97	372	172	-1185	31
-160	703	300	-1163	31
-247	676	18	-1386	31
-138	-545	-132	339	31
112	-1200	-381	477	31
290	-1127	-535	736	31
362	-810	-409	1609	31
242	91	39	292	31
74	18	295	-614	31
15	-57	272	-1176	31
17	-105	242	-635	31
11	-227	52	-464	31
-24	-5	16	-502	31
-87	-137	98	219	31
-144	97	-23	53	31
-178	244	-191	-448	31
-161	487	-20	-172	31
-99	563	170	352	31
26	130	191	384	31
191	-206	71	142	31
173	-527	107	-971	31
105	-179	1	-201	31
111	-14	-213	312	31
34	-55	44	-118	31
-21	164	60	538	31
-60	31	62	89	31
-112	93	-4	700	31
-79	92	-110	966	31
-64	82	89	753	31
-41	140	244	749	31
3	125	55	267	31
-14	505	-450	661	31
-60	1193	-378	955	31
-86	1541	62	656	31
-163	714	257	-874	31
-169	-799	324	-2464	31
-28	-1692	93	-1582	31
128	-1512	-100	90	31
273	-856	-58	-55	31
184	-271	-77	655	31
-29	24	-45	728	31
-108	287	6	408	31
-148	616	-204	311	31
-110	1250	-488	120	31
-80	2046	-229	617	31
-128	1511	186	735	31
-138	-654	313	401	31
137	-2214	196	-467	31
503	-1876	-16	-651	31
532	-406	-261	-540	31
230	193	-476	181	31
-74	388	-272	528	31
-44	39	234	523	31
19	-20	525	559	31
41	190	509	-1327	31
64	151	452	-1547	31
4	262	74	-694	31
-36	362	-337	120	31
-153	881	-300	785	31
-254	1197	97	-1204	31
-284	571	276	-1860	31
-209	-583	-166	257	31
-9	-1020	-141	403	31
181	-502	2	99	31
216	-381	-94	559	31
82	-664	-27	107	31
32	-672	18	29	31
26	-396	110	-58	31
-50	-23	83	213	31
-69	16	122	44	31
-69	52	7	401	31
-61	81	-175	992	31
-55	29	-333	724	31
-84	93	-403	394	31
-76	49	-1	-299	31
-83	143	180	-343	31
-115	259	68	-1226	31
-93	220	59	-1007	31
11	7	184	-718	31
91	-250	292	-1246	31
62	-275	234	-69	31
56	-89	153	9	31
60	214	-21	276	31
-81	557	-362	772	31
-188	618	-538	849	31
-138	17	-282	780	31
-65	-679	-117	-149	31
33	-730	84	-162	31
111	-325	457	534	31
159	-83	195	701	31
229	-62	-153	-100	31
218	-112	37	-1117	31
130	-131	224	-1042	31
71	-32	57	56	31
-28	-34	-62	-50	31
-180	15	486	-547	31
-226	123	755	145	31
-208	120	220	359	31
-91	85	-277	293	31
128	14	-686	663	31
279	27	-545	1174	31
230	59	-322	1257	31
40	141	-239	-591	31
-12	317	191	-2242	31
-27	280	313	-1154	31
-28	0	-136	380	31
14	-231	-461	517	31
-2	-129	-162	476	31
4	252	-3	683	31
-75	361	-16	690	31
-148	44	36	581	31
-166	-204	82	-365	31
-185	66	274	-451	31
-228	1058	244	363	31
-342	1980	146	116	31
-336	1537	42	-4	31
-336	1537	42	-4	31
-331	1524	46	-2	31
-326	1510	51	1	31
-320	1497	56	3	31
-315	1483	61	6	31
-309	1469	65	8	31
-304	1456	70	11	31
-299	1442	75	14	31
-293	1428	80	16	31
-288	1415	84	19	31
-282	1401	89	21	31
-277	1387	94	24	31
-271	1374	99	27	31
-266	1360	103	29	31
-261	1346	108	32	31
-255	1333	113	34	31
-250	1319	118	37	31
-244	1305	123	39	31
-239	1292	127	42	31
-234	1278	132	45	31
-228	1264	137	47	31
-223	1251	142	50	31
-217	1237	146	52	31
-212	1224	151	55	31
-206	1210	156	58	31
-201	1196	161	60	31
-196	1183	165	63	31
-190	1169	170	65	31
-185	1155	175	68	31
-179	1142	180	70	31
-174	1128	185	73	31
-169	1114	189	76	31
-163	1101	194	78	31
-158	1087	199	81	31
-152	1073	204	83	31
-147	1060	208	86	31
-141	1046	213	89	31
-136	1032	218	91	31
-131	1019	223	94	31
-125	1005	227	96	31
-120	991	232	99	31
-114	978	237	101	31
-109	964	242	104	31
-104	951	246	107	31
-98	937	251	109	31
-93	923	256	112	31
-87	910	261	114	31
-82	896	266	117	31
-76	882	270	120	31
-71	869	275	122	31
-66	855	280	125	31
-60	841	285	127	31
-55	828	289	130	31
-49	814	294	132	31
-44	800	299	135	31
-39	787	304	138	31
-33	773	308	140	31
-28	759	313	143	31
-22	746	318	145	31
-17	732	323	148	31
-11	718	328	151	31
-60	430	163	705	31
-77	-252	-126	578	31
-45	-95	-242	909	31
14	395	-29	298	31
9	149	86	-748	31
-98	-85	50	-817	31
-96	564	46	432	31
-170	1807	213	97	31
-358	1619	691	57	31
-265	-486	578	228	31
-25	-1990	-55	-859	31
338	-1886	-435	-26	31
451	-613	-667	405	31
314	-398	-249	347	31
273	-857	-120	464	31
172	-533	-331	6	31
59	-570	-53	-177	31
-42	-408	181	-231	31
64	-338	364	-210	31
119	-175	253	-52	31
73	248	-60	260	31
-32	473	-482	533	31
-168	1034	-580	1009	31
-170	1597	-78	640	31
-237	1927	414	-823	31
-347	1626	539	-1608	31
-396	242	209	-719	31
-71	-1398	83	-102	31
368	-2123	216	173	31
368	-2123	216	173	31
361	-2099	216	171	31
354	-2074	216	168	31
347	-2049	216	166	31
340	-2024	216	163	31
333	-1999	216	161	31
326	-1974	216	158	31
319	-1949	216	156	31
312	-1924	216	153	31
305	-1899	216	151	31
298	-1874	216	148	31
291	-1849	216	146	31
284	-1824	216	143	31
277	-1799	216	141	31
270	-1774	216	138	31
263	-1749	216	135	31
256	-1724	216	133	31
249	-1699	216	130	31
242	-1674	216	128	31
235	-1649	216	125	31
228	-1624	216	123	31
221	-1600	216	120	31
214	-1575	216	118	31
207	-1550	216	115	31
200	-1525	216	113	31
193	-1500	216	110	31
186	-1475	216	108	31
179	-1450	216	105	31
172	-1425	216	103	31
165	-1400	216	100	31
158	-1375	217	97	31
151	-1350	217	95	31
144	-1325	217	92	31
137	-1300	217	90	31
130	-1275	217	87	31
123	-1250	217	85	31
116	-1225	217	82	31
109	-1200	217	80	31
102	-1175	217	77	31
95	-1150	217	75	31
88	-1125	217	72	31
81	-1101	217	70	31
74	-1076	217	67	31
67	-1051	217	65	31
60	-1026	217	62	31
53	-1001	217	59	31
46	-976	217	57	31
39	-951	217	54	31
32	-926	217	52	31
25	-901	217	49	31
18	-876	217	47	31
11	-851	217	44	31
4	-826	217	42	31
-3	-801	217	39	31
-10	-776	217	37	31
-17	-751	217	34	31
-24	-726	217	32	31
-31	-701	217	29	31
-38	-676	217	27	31
-45	-651	217	24	31
-53	-626	218	21	31
22	-310	402	710	31
71	-14	342	1363	31
-23	120	152	489	31
-65	-158	213	-31	31
-35	-95	-2	157	31
18	108	-318	374	31
74	-384	-592	570	31
115	-719	-865	-630	31
191	-791	-682	-322	31
201	-462	-309	1446	31
170	578	-153	1583	31
108	490	7	782	31
-12	-483	158	-1211	31
-87	-834	388	-2431	31
-34	-500	570	-1573	31
-20	660	511	-1674	31
-170	1341	606	-1558	31
-332	1117	788	-109	31
-315	628	577	701	31
-152	148	-171	1641	31
41	-86	-846	1492	31
125	-686	-994	318	31
160	-1062	-270	27	31
313	-763	269	304	31
243	-664	98	721	31
70	-217	74	-383	31
-18	-90	-388	-1272	31
-91	-651	-543	-1138	31
-113	-142	-109	-691	31
-158	359	62	327	31
-30	74	226	1209	31
114	18	352	1334	31
287	292	352	825	31
346	480	403	416	31
-20	103	421	363	31
-94	-195	195	-1308	31
-16	-57	-373	-2068	31
-175	-120	-899	-162	31
-163	-50	-314	-498	31
-62	413	510	335	31
-16	701	249	881	31
-51	823	-202	249	31
-57	392	-348	356	31
10	-209	-23	-694	31
93	-206	316	380	31
46	-92	-16	741	31
-26	82	-424	550	31
63	176	-306	17	31
52	182	-24	-823	31
24	223	105	-328	31
1	183	186	-237	31
-54	173	103	72	31
-62	154	23	284	31
-75	137	-50	476	31
-50	122	-4	162	31
-23	112	29	-170	31
13	120	88	507	31
53	113	254	972	31
46	97	155	486	31
46	97	155	486	31
38	118	166	485	31
30	140	177	483	31
21	161	188	481	31
13	183	200	479	31
4	204	211	477	31
-4	226	222	475	31
-13	247	234	474	31
-21	269	245	472	31
-30	291	256	470	31
-38	312	268	468	31
-47	334	279	466	31
-55	355	290	464	31
-64	377	302	463	31
-72	398	313	461	31
-81	420	324	459	31
-89	441	336	457	31
-98	463	347	455	31
-106	485	358	453	31
-115	506	369	451	31
-123	528	381	450	31
-132	549	392	448	31
-140	571	403	446	31
-149	592	415	444	31
-157	614	426	442	31
-166	635	437	440	31
-174	657	449	439	31
-183	679	460	437	31
-191	700	471	435	31
-200	722	483	433	31
-208	743	494	431	31
-217	765	505	429	31
-225	786	517	428	31
-234	808	528	426	31
-242	829	539	424	31
-251	851	551	422	31
-259	873	562	420	31
-267	894	573	418	31
-276	916	584	416	31
-284	937	596	415	31
-293	959	607	413	31
-301	980	618	411	31
-310	1002	630	409	31
-318	1023	641	407	31
-327	1045	652	405	31
-335	1067	664	404	31
-344	1088	675	402	31
-352	1110	686	400	31
-361	1131	698	398	31
-369	1153	709	396	31
-378	1174	720	394	31
-386	1196	732	393	31
-395	1217	743	391	31
-403	1239	754	389	31
-412	1261	765	387	31
-420	1282	777	385	31
-429	1304	788	383	31
-437	1325	799	381	31
-446	1347	811	380	31
-454	1368	822	378	31
-463	1390	833	376	31
-471	1411	845	374	31
-480	1433	856	372	31
-488	1455	867	370	31
-497	1476	879	369	31
-505	1498	890	367	31
-514	1519	901	365	31
-522	1541	913	363	31
-531	1562	924	361	31
-539	1584	935	359	31
-548	1606	947	357	31
-421	1327	591	214	31
-74	-229	-266	-256	31
251	-1949	-1302	351	31
567	-1754	-1670	441	31
597	-386	-996	-77	31
171	41	-468	-241	31
-201	285	-183	-180	31
-261	440	-62	123	31
-314	298	-17	501	31
-111	720	-13	542	31
43	747	-103	451	31
-173	262	57	694	31
-216	-462	360	-168	31
-60	-631	412	-583	31
-171	-284	293	-454	31
-127	-803	391	-468	31
132	-1132	418	-289	31
199	-778	502	169	31
505	-219	353	561	31
515	183	69	-1274	31
152	163	5	-1444	31
115	137	-80	-355	31
117	12	-55	-78	31
47	176	-242	602	31
-37	443	-302	732	31
-70	641	-156	859	31
-121	586	-14	-300	31
-155	1	267	-753	31
-79	-272	344	-196	31
-6	-34	236	-247	31
48	547	150	57	31
-127	816	204	199	31
-258	793	251	151	31
-239	561	199	-97	31
-193	47	-105	-397	31
-69	-427	-664	-261	31
-64	-1200	-914	256	31
-21	-1267	-478	724	31
88	-570	-65	964	31
96	-262	-375	1029	31
62	92	-629	1171	31
135	540	-438	926	31
79	477	219	-80	31
-63	115	680	-1305	31
-19	-124	515	-1813	31
-29	-120	474	-1526	31
-19	-53	735	-1017	31
-72	69	578	626	31
-103	173	284	1270	31
-103	173	284	1270	31
-100	174	284	1257	31
-97	176	284	1243	31
-93	178	284	1230	31
-90	180	284	1216	31
-86	182	284	1202	31
-83	183	283	1189	31
-79	185	283	1175	31
-76	187	283	1161	31
-72	189	283	1148	31
-69	191	283	1134	31
-65	192	283	1120	31
-62	194	282	1107	31
-59	196	282	1093	31
-55	198	282	1079	31
-52	200	282	1066	31
-48	202	282	1052	31
-45	203	282	1039	31
-41	205	281	1025	31
-38	207	281	1011	31
-34	209	281	998	31
-31	211	281	984	31
-27	212	281	970	31
-24	214	281	957	31
-21	216	280	943	31
-17	218	280	929	31
-14	220	280	916	31
-10	221	280	902	31
-7	223	280	888	31
-3	225	280	875	31
0	227	279	861	31
4	229	279	848	31
7	231	279	834	31
11	232	279	820	31
14	234	279	807	31
18	236	278	793	31
21	238	278	779	31
24	240	278	766	31
28	241	278	752	31
31	243	278	738	31
35	245	278	725	31
38	247	277	711	31
42	249	277	697	31
45	251	277	684	31
49	252	277	670	31
52	254	277	657	31
56	256	277	643	31
59	258	276	629	31
62	260	276	616	31
66	261	276	602	31
69	263	276	588	31
73	265	276	575	31
76	267	276	561	31
80	269	275	547	31
83	270	275	534	31
87	272	275	520	31
90	274	275	506	31
94	276	275	493	31
97	278	275	479	31
100	280	274	466	31
104	281	274	452	31
107	283	274	438	31
111	285	274	425	31
114	287	274	411	31
118	289	274	397	31
121	290	273	384	31
125	292	273	370	31
128	294	273	356	31
132	296	273	343	31
135	298	273	329	31
139	300	272	315	31
-85	448	449	-841	31
-258	-232	386	-2	31
-134	-1290	196	1250	31
92	-2045	79	398	31
398	-1916	-38	542	31
741	-985	122	767	31
630	32	458	271	31
149	479	631	-185	31
-45	394	132	-850	31
30	519	-416	-605	31
-166	527	-449	-626	31
-285	426	-572	453	31
-44	367	-666	1450	31
133	153	-448	807	31
173	288	-90	10	31
46	454	411	-1405	31
-170	787	682	-882	31
-285	996	562	150	31
-301	386	383	-597	31
-218	-267	-22	-700	31
-65	-530	-191	-329	31
39	-389	-178	448	31
35	-591	-188	559	31
107	-922	35	226	31
143	-495	126	289	31
-8	-322	180	279	31
-122	-231	207	370	31
-200	271	-170	401	31
-165	770	-543	936	31
-25	634	-635	1037	31
77	-269	-537	1241	31
180	-625	-413	1088	31
109	-241	-256	-327	31
-85	-36	509	-1363	31
-162	-79	1020	-2184	31
-201	144	812	-1367	31
-224	173	184	363	31
-128	-363	-287	311	31
24	-566	-367	-501	31
192	-223	-416	-526	31
293	-68	112	1078	31
178	-104	348	924	31
23	-49	181	-276	31
-12	2	-78	629	31
-26	162	-53	-77	31
-21	254	270	-173	31
60	298	262	1007	31
32	417	33	984	31
-231	1035	-393	1047	31
-380	1927	-6	-589	31
-346	1346	416	-2275	31
-73	-857	55	-1431	31
357	-2211	-303	-256	31
489	-1441	-397	-583	31
402	-11	-507	205	31
98	251	-477	785	31
-128	105	-205	256	31
-26	-233	103	1067	31
117	-323	677	820	31
135	-212	653	946	31
115	-54	480	278	31
121	830	342	-582	31
-117	1145	-98	-747	31
-244	199	-191	-1797	31
-156	-776	-337	-961	31
-4	-1088	-307	-26	31
160	-437	-249	926	31
32	-254	-135	683	31
-38	-476	52	136	31
-9	32	77	-373	31
11	107	306	-691	31
-52	293	123	134	31
-127	670	-16	-465	31
-132	502	-215	186	31
-228	108	-340	601	31
-218	-421	-276	558	31
-183	-494	-231	650	31
-178	69	140	793	31
-114	485	274	474	31
36	457	196	-416	31
204	136	-121	357	31
365	-579	-218	301	31
506	-647	-135	-764	31
438	-285	159	-1340	31
272	-145	236	-501	31
-27	55	-346	999	31
-159	189	-393	782	31
-248	745	-16	-788	31
-445	1282	9	-701	31
-550	1240	-102	20	31
-644	220	158	-567	31
-419	-1190	214	-914	31
-17	-1623	414	-1354	31
369	-1108	675	-692	31
557	-432	649	-94	31
557	-81	595	883	31
486	240	162	954	31
223	514	-424	494	31
-127	659	-756	1156	31
-168	409	-312	17	31
-24	-185	20	-593	31
88	-280	-88	-276	31
289	603	91	381	31
-8	1440	78	730	31
-246	745	-82	1108	31
-160	-759	-80	645	31
-153	-1532	17	-1418	31
-16	-869	-98	-1846	31
0	68	-271	-719	31
4	179	-244	365	31
-59	325	-215	622	31
-39	173	-133	589	31
-46	-159	-102	166	31
-171	-208	-37	-140	31
-98	-527	-119	-11	31
-36	-399	-7	24	31
102	319	578	-132	31
73	568	727	-402	31
-50	632	189	293	31
6	697	-184	-161	31
-42	269	-188	-82	31
-64	-149	365	1092	31
105	-649	658	1039	31
275	-624	163	869	31
292	66	-34	-514	31
210	-69	-452	-779	31
-9	-246	-592	-18	31
-84	-275	-378	-20	31
-41	-242	-465	123	31
-178	75	-327	-400	31
-272	82	-112	-914	31
-350	378	-50	-802	31
-314	495	-195	138	31
-99	289	50	622	31
221	-49	438	603	31
336	-183	507	602	31
137	303	395	-569	31
29	277	108	-763	31
-130	118	-63	-216	31
-22	37	-403	134	31
104	103	-502	1045	31
-152	972	176	1002	31
-246	1837	659	117	31
-398	1526	626	-1379	31
-502	-447	3	-1855	31
-292	-2169	-826	467	31
115	-1964	-753	1357	31
403	-784	-342	829	31
584	-388	128	400	31
742	-53	385	-499	31
549	151	202	-42	31
150	-115	211	-200	31
-75	40	184	-269	31
-236	126	158	-420	31
-458	504	461	-638	31
-368	641	694	227	31
-176	378	692	-390	31
32	5	161	-118	31
348	-367	-495	532	31
575	-123	-707	357	31
294	42	-893	421	31
-187	249	-725	90	31
-178	313	-460	129	31
-191	11	-345	180	31
-159	-117	-112	249	31
62	54	1	-155	31
92	663	301	-946	31
-31	670	600	-886	31
-95	-41	432	387	31
-66	-571	74	1425	31
-85	-681	-115	944	31
27	-540	-83	-26	31
100	-840	76	50	31
6	-829	95	362	31
-59	-337	181	-198	31
-105	-28	145	-512	31
-181	398	-132	-516	31
-201	649	-181	-173	31
-60	251	-73	-368	31
7	-253	135	-664	31
11	97	116	246	31
15	695	-158	1431	31
-70	675	-306	1243	31
-105	-150	-176	106	31
-33	-1105	241	-1322	31
140	-1305	690	-1404	31
228	-1001	517	-414	31
167	-56	-44	260	31
