File Name: not saved
Channel 1: 'EMG 1', 17680 values, raw ADC, no filters.
Channel 2: 'EMG 2', 17680 values, raw ADC, no filters.
Channel 3: 'EMG 3', 17680 values, raw ADC, no filters.
Channel 4: 'EMG 4', 17680 values, raw ADC, no filters.
Digitals combined (event=16, d=8, c=4, b=2, a=1): 17680 values, .

-2	12	-18	65	31
1	33	-33	137	31
34	11	65	-6	31
34	4	153	-142	31
27	24	163	-196	31
20	36	36	-162	31
-38	50	-74	-97	31
-59	77	-146	110	31
-21	70	-124	254	31
12	33	-46	137	31
4	-31	14	-35	31
6	-92	2	-170	31
64	-98	5	-392	31
66	-102	63	-329	31
24	-98	25	43	31
-4	-66	27	105	31
-40	-39	45	-16	31
-41	-13	-50	-108	31
-40	3	-111	-1	31
-63	26	-85	156	31
-80	44	-22	127	31
-85	34	108	70	31
-15	6	226	-32	31
49	-5	145	-22	31
74	19	-80	77	31
85	27	-213	242	31
29	-2	-128	127	31
-27	-25	77	-181	31
-81	-7	183	57	31
-43	6	214	136	31
24	9	185	-165	31
53	17	34	-241	31
152	9	-71	-115	31
118	7	-55	-128	31
28	-7	-20	-95	31
-16	-22	-60	82	31
-20	-11	-112	129	31
38	10	-91	170	31
33	26	-51	26	31
-60	27	-74	-52	31
-89	42	-60	2	31
-28	31	14	73	31
-117	-22	42	67	31
-163	-59	65	-102	31
-87	-41	54	37	31
-31	6	9	145	31
23	6	14	85	31
48	21	5	29	31
141	47	-82	-173	31
191	78	-66	-342	31
127	89	32	-334	31
114	-1	60	-116	31
34	-74	31	2	31
-41	-132	-74	120	31
-7	-110	-77	212	31
-44	-26	2	80	31
-45	-35	-14	69	31
-35	-26	-36	-26	31
-27	26	-39	-70	31
31	49	-37	-38	31
11	32	-29	-124	31
-27	-17	20	34	31
-56	-37	80	231	31
-68	4	173	357	31
-56	52	197	287	31
-83	27	59	30	31
-99	-2	-107	-67	31
-93	-32	-239	-69	31
-108	-19	-120	-19	31
-141	78	-4	17	31
-138	103	63	-120	31
9	67	195	-221	31
65	-35	15	-94	31
97	-122	-139	-44	31
324	-21	-82	-142	31
284	16	-17	-129	31
45	-36	90	-44	31
-65	-55	93	32	31
-74	-77	65	9	31
-25	23	93	16	31
-24	19	16	55	31
-70	-17	-76	35	31
-41	63	-110	116	31
37	101	-150	160	31
22	121	-95	69	31
58	16	-4	10	31
49	-123	-16	87	31
-52	-142	37	-2	31
49	-72	23	-77	31
107	-22	4	-163	31
17	-21	80	-295	31
3	7	75	-70	31
11	17	87	69	31
-39	27	58	103	31
-56	29	-3	192	31
-42	14	-52	181	31
-90	-2	-72	188	31
-117	17	-87	190	31
-136	69	-75	148	31
-231	95	-21	-41	31
-297	99	57	-243	31
-143	48	120	-28	31
31	-27	53	259	31
95	-5	65	164	31
265	98	104	-155	31
359	80	70	-657	31
174	-40	110	-663	31
50	-171	-44	-70	31
65	-256	-210	172	31
93	-129	-175	14	31
170	6	-119	-68	31
-15	38	-28	77	31
-143	64	50	186	31
-130	53	77	314	31
-191	13	42	226	31
-87	-14	-19	-25	31
6	-24	-120	-53	31
137	-60	-97	-29	31
153	-29	2	140	31
66	4	21	115	31
19	-25	41	-52	31
-126	6	20	-176	31
-135	86	64	-238	31
-127	107	79	-130	31
-74	39	0	-1	31
125	-37	-32	68	31
247	-107	2	79	31
142	-44	43	167	31
34	60	17	130	31
52	50	-70	102	31
-20	47	-132	127	31
-60	-12	-148	-7	31
-35	-57	-75	-27	31
47	-36	-4	239	31
19	-21	-36	284	31
-54	21	93	-291	31
-1	28	267	-442	31
-20	47	271	134	31
-47	47	247	-117	31
-70	11	214	-561	31
-92	-21	70	-208	31
-117	-63	-76	-104	31
-183	-9	-85	75	31
-214	69	-127	255	31
-90	62	-277	127	31
46	8	-300	276	31
38	-55	-79	504	31
87	-50	144	360	31
119	-17	200	-122	31
-49	30	143	-375	31
-67	45	-31	-517	31
37	67	-241	-420	31
56	78	-259	-2	31
118	-16	-123	137	31
-1	-63	-42	16	31
-33	-80	4	20	31
83	-34	22	107	31
0	-8	-36	101	31
21	-37	-38	-14	31
72	-1	31	-72	31
-71	-14	60	137	31
-161	17	50	301	31
-74	48	95	329	31
42	31	147	34	31
64	16	61	-63	31
64	-6	11	19	31
135	-11	112	-430	31
61	-36	217	-665	31
-76	-3	193	-410	31
-29	0	125	140	31
-36	6	-19	507	31
-7	69	-299	372	31
36	47	-388	83	31
-22	-21	-241	-25	31
-16	-82	-87	-40	31
46	-59	19	8	31
-12	-19	49	8	31
-59	-24	48	-84	31
78	-2	19	249	31
52	-4	-76	643	31
24	-3	-52	499	31
-21	33	29	313	31
-87	51	72	72	31
-50	36	79	-898	31
-105	36	122	-1104	31
-77	60	286	-381	31
-91	40	300	-111	31
-120	2	160	31	31
-120	-72	-65	-75	31
-68	-109	-284	204	31
181	-7	-290	519	31
358	16	-268	150	31
138	-11	-195	-61	31
-19	34	12	-225	31
87	0	170	-34	31
15	-29	197	279	31
15	-57	160	-131	31
19	-50	115	-380	31
-47	29	2	-180	31
-92	47	-146	-1	31
-122	78	-201	74	31
-9	45	10	109	31
97	-16	268	123	31
123	-80	150	92	31
75	-83	-52	55	31
31	-9	-214	-5	31
-27	-12	-368	34	31
-36	18	-247	97	31
-32	11	108	155	31
-62	2	290	29	31
-80	23	133	55	31
-131	15	27	319	31
-127	25	-109	278	31
-130	11	-199	264	31
-39	32	-93	154	31
132	57	-5	-242	31
49	67	118	-536	31
-86	102	244	-431	31
0	78	141	-24	31
35	-38	-59	41	31
90	-146	-141	44	31
158	-152	-128	-29	31
87	-60	-113	-318	31
46	-17	-193	-118	31
29	-1	-107	112	31
60	43	-11	51	31
-17	88	2	152	31
4	116	117	200	31
11	41	121	-99	31
-72	-29	125	-451	31
9	-39	223	-166	31
-4	4	254	318	31
-39	3	162	355	31
-72	-71	67	309	31
-61	-11	27	152	31
-50	68	-146	-44	31
-105	71	-288	-269	31
-102	16	-260	-175	31
-41	-118	-57	-76	31
47	-184	65	-64	31
92	-131	60	431	31
137	-85	147	481	31
75	-6	129	434	31
-11	26	36	324	31
12	27	-77	-331	31
-16	134	-56	-742	31
-52	238	47	-418	31
-78	298	100	-363	31
-108	218	175	-589	31
-101	-28	92	7	31
-51	-348	-96	93	31
69	-428	-209	73	31
189	-193	-193	221	31
167	-60	44	-50	31
42	-19	214	-4	31
-26	67	178	16	31
-49	104	136	91	31
-97	131	-24	147	31
-128	179	-136	104	31
-104	155	-118	120	31
-97	41	-170	152	31
-27	-66	-224	171	31
149	-162	-220	134	31
130	-203	-96	88	31
0	-104	138	22	31
25	27	239	73	31
-26	93	50	85	31
-22	118	-201	25	31
72	49	-366	-160	31
-25	-44	-292	-463	31
-39	-29	-2	-451	31
78	-84	81	-130	31
133	-102	123	32	31
63	4	193	84	31
1	-16	138	2	31
-30	-29	149	21	31
-103	10	136	188	31
-115	67	191	133	31
-105	148	231	120	31
-39	143	10	27	31
25	80	-201	-8	31
55	-17	-120	50	31
92	-44	11	14	31
86	-56	-35	-7	31
-11	-128	-140	-41	31
-17	-73	-246	16	31
45	1	-171	16	31
-1	-34	-50	-42	31
94	-26	31	-14	31
29	0	118	18	31
-163	36	64	156	31
-152	53	130	342	31
-165	43	118	-4	31
-34	82	-19	-449	31
121	90	0	-347	31
87	76	14	-113	31
16	63	36	82	31
-29	35	41	138	31
-32	-16	17	54	31
54	-82	45	105	31
95	40	105	188	31
-7	148	66	52	31
-57	29	-50	-31	31
9	-77	-52	-85	31
121	-208	-22	-122	31
102	-190	7	-7	31
29	-16	16	34	31
22	-11	-18	82	31
-34	39	26	147	31
-47	57	125	204	31
-54	-4	67	147	31
-64	-39	125	21	31
-54	-67	375	-47	31
-31	-11	313	-203	31
31	-39	178	-229	31
29	-28	4	-187	31
11	6	-466	-166	31
-21	-10	-777	-21	31
-39	36	-608	-60	31
-31	56	-210	-65	31
-41	107	-72	79	31
-22	108	-136	93	31
-10	62	-16	97	31
-7	2	17	20	31
-14	-91	71	-45	31
-7	-83	186	27	31
10	-14	241	102	31
12	21	287	91	31
46	47	215	-13	31
42	72	87	-22	31
-31	42	-119	8	31
-62	2	-186	-72	31
-65	-43	-231	7	31
-63	-35	-181	-7	31
-36	16	37	-216	31
17	29	72	-228	31
99	70	108	-34	31
36	72	115	39	31
-64	52	57	39	31
-21	1	21	105	31
11	-149	9	-48	31
46	-212	-1	-193	31
57	-131	67	-297	31
-26	-44	91	-93	31
-118	95	-47	448	31
-187	251	-52	509	31
-238	196	-17	187	31
-222	34	90	-23	31
16	-156	120	-137	31
261	-220	1	-82	31
271	-126	-69	-8	31
288	-137	-122	27	31
198	-92	-80	36	31
53	-80	21	-33	31
46	-65	197	16	31
-37	74	448	-16	31
-39	112	577	-9	31
-49	111	409	36	31
-93	61	102	-4	31
-92	-26	-366	62	31
-67	-63	-709	92	31
19	13	-469	128	31
-102	111	-338	67	31
-234	132	-383	-210	31
-84	129	-34	-186	31
0	43	223	2	31
79	50	224	-27	31
371	44	213	146	31
293	-40	174	117	31
21	-88	-32	-86	31
50	-238	-275	-38	31
16	-156	-256	-82	31
7	27	-264	-93	31
55	15	-272	-141	31
-31	22	-58	-84	31
-94	16	93	72	31
-103	84	125	317	31
-88	177	237	410	31
-95	144	271	244	31
-91	57	176	146	31
-55	-128	-30	-292	31
-61	-187	-110	-622	31
-2	32	75	-220	31
120	72	70	64	31
93	-47	11	-35	31
98	-26	70	52	31
191	-89	-24	-14	31
137	-181	-45	-24	31
11	-88	-6	91	31
-27	7	11	62	31
-36	22	70	33	31
-67	79	132	-49	31
-43	126	153	-120	31
-59	108	-30	-156	31
-55	4	-110	-55	31
-47	-105	-87	57	31
-49	-79	-70	75	31
-29	-17	-22	82	31
-79	-23	-127	51	31
-81	-6	-74	-112	31
-54	87	122	-112	31
-47	242	178	-7	31
-67	384	114	79	31
-80	399	59	116	31
-89	221	-47	-5	31
-80	-116	-179	246	31
-14	-376	-160	208	31
22	-499	-31	6	31
4	-468	105	118	31
-59	-205	143	-1	31
20	-39	256	13	31
219	-39	295	27	31
232	-17	174	0	31
116	-5	-49	8	31
53	41	-218	-110	31
-5	51	-202	-267	31
-31	42	-209	-239	31
-10	55	-18	-47	31
9	45	27	2	31
37	62	-215	49	31
-4	54	-247	113	31
-29	53	-289	98	31
-14	54	-284	59	31
-29	46	-166	117	31
-23	49	-37	165	31
-24	41	161	1	31
-22	41	289	-159	31
-27	32	282	-162	31
-37	26	145	-250	31
-35	20	60	-90	31
-35	14	26	106	31
-1	22	-7	-14	31
46	28	-4	1	31
31	26	77	-74	31
-18	17	118	-123	31
-13	4	84	12	31
-1	2	42	182	31
6	22	-8	103	31
11	11	25	74	31
-6	-17	18	42	31
-29	-27	31	-238	31
-42	-42	-49	-155	31
-14	-25	-90	-49	31
-13	-2	-7	34	31
-36	-1	7	67	31
-32	-11	124	60	31
-46	-30	27	14	31
-76	9	-170	-1	31
-39	79	-219	154	31
-10	52	-196	-2	31
-31	-19	-77	50	31
137	-47	11	187	31
208	-34	125	36	31
55	-45	108	-52	31
54	-84	65	-27	31
19	-4	98	-38	31
-13	57	95	-64	31
16	32	84	-12	31
7	-16	-11	45	31
16	-79	-152	93	31
-25	-30	-169	78	31
-41	6	-39	-65	31
-41	-10	37	-325	31
47	72	77	-82	31
74	70	37	338	31
-26	26	14	140	31
-6	-17	58	36	31
-2	-76	1	108	31
-16	11	-2	62	31
-10	63	69	7	31
-29	15	93	-34	31
-5	-91	-4	0	31
-1	-186	-194	-216	31
3	-113	-304	-389	31
-4	-40	-64	-204	31
-22	-29	239	57	31
-17	6	201	140	31
-27	12	100	158	31
-34	1	-80	91	31
-37	5	-243	-82	31
-43	11	-172	11	31
-50	17	-98	81	31
-49	29	-50	-2	31
-17	111	57	-63	31
22	211	105	-44	31
41	163	50	-59	31
13	-3	15	-19	31
-34	-130	35	84	31
9	-133	69	46	31
44	-61	57	88	31
5	26	31	65	31
-51	163	-17	-31	31
-82	298	9	-70	31
-42	283	33	26	31
-2	100	-26	48	31
23	-103	29	-89	31
74	-355	80	4	31
154	-457	50	89	31
142	-263	-59	38	31
82	-118	-139	6	31
91	-45	-169	-211	31
49	11	-120	-504	31
6	41	-6	-331	31
-42	44	29	167	31
-116	16	64	401	31
-120	14	44	201	31
-74	28	54	-41	31
14	135	135	87	31
-36	272	113	135	31
-58	266	56	-7	31
8	133	-16	-26	31
-29	-116	-95	-146	31
57	-294	-17	-190	31
107	-176	64	-125	31
70	-55	89	41	31
105	-44	169	253	31
28	27	153	183	31
-14	9	-60	202	31
4	-65	-257	371	31
-39	-72	-297	370	31
-34	-9	-249	57	31
-55	12	-196	-167	31
-47	2	-110	-254	31
-26	26	2	-476	31
-42	14	81	-321	31
-29	38	135	64	31
-41	57	107	130	31
-44	82	69	120	31
-22	78	95	107	31
-12	44	87	-138	31
-11	31	72	-208	31
-3	-36	61	-115	31
9	-41	-42	-88	31
26	2	-105	-2	31
14	14	-7	44	31
-2	16	6	55	31
6	17	-29	-4	31
7	19	-27	-189	31
17	17	-83	-235	31
7	15	-57	-62	31
-6	4	85	257	31
-9	7	134	469	31
-8	6	123	274	31
6	16	73	242	31
1	20	-62	92	31
-9	17	37	-390	31
-22	41	70	-499	31
-22	85	-20	-14	31
-14	113	7	297	31
-7	64	113	-112	31
-6	-69	170	10	31
-5	-151	32	254	31
26	-88	-63	202	31
2	-40	-229	69	31
-57	-48	-246	-188	31
-43	-6	-30	-87	31
5	3	-45	-50	31
13	-11	-92	-38	31
9	22	-29	83	31
29	86	-53	178	31
-12	85	27	-62	31
-117	-31	31	-344	31
-130	-166	-6	-216	31
9	-163	47	-105	31
189	-73	-48	-5	31
215	-14	-67	112	31
105	55	-18	56	31
33	11	-4	-20	31
9	-39	9	26	31
14	-35	47	44	31
-6	-13	52	138	31
-29	21	96	148	31
-23	1	122	-64	31
-16	28	28	-34	31
-8	17	-50	-22	31
-29	11	-100	-120	31
-34	15	-48	29	31
-34	2	39	95	31
-36	15	128	-21	31
-24	17	191	-21	31
-9	32	158	4	31
2	17	-9	13	31
3	17	-138	50	31
2	20	-72	-6	31
-14	12	-61	-35	31
-35	15	-114	-49	31
-36	15	-146	-37	31
-14	36	-170	-44	31
3	26	-94	-52	31
33	-11	10	12	31
14	-50	34	81	31
-75	-51	45	108	31
-69	-11	-7	-78	31
1	-2	-33	-128	31
4	64	-6	24	31
-13	140	2	70	31
-44	182	-6	71	31
-92	221	42	103	31
-123	146	181	164	31
-49	4	246	168	31
40	-156	226	-62	31
-19	-336	33	-165	31
87	-403	-151	92	31
155	-221	-166	246	31
64	-59	-31	200	31
190	-51	21	32	31
123	-6	-70	-117	31
-16	2	-46	-240	31
67	21	-143	-247	31
69	31	-140	-207	31
69	31	-140	-207	31
69	31	-140	-205	31
68	31	-139	-202	31
67	31	-138	-200	31
66	31	-137	-197	31
66	31	-136	-195	31
65	31	-135	-192	31
64	31	-134	-190	31
63	31	-133	-187	31
63	31	-132	-184	31
62	31	-131	-182	31
61	31	-130	-179	31
60	31	-129	-177	31
60	31	-128	-174	31
59	31	-127	-172	31
58	31	-126	-169	31
57	31	-125	-167	31
57	31	-124	-164	31
56	30	-123	-161	31
55	30	-122	-159	31
54	30	-121	-156	31
54	30	-120	-154	31
53	30	-119	-151	31
52	30	-118	-149	31
51	30	-117	-146	31
51	30	-116	-144	31
50	30	-115	-141	31
49	30	-114	-138	31
48	30	-113	-136	31
48	30	-112	-133	31
47	30	-111	-131	31
46	30	-110	-128	31
45	30	-109	-126	31
44	30	-108	-123	31
44	30	-107	-121	31
43	29	-106	-118	31
42	29	-105	-115	31
41	29	-104	-113	31
41	29	-103	-110	31
40	29	-102	-108	31
39	29	-101	-105	31
38	29	-100	-103	31
38	29	-99	-100	31
37	29	-98	-97	31
36	29	-97	-95	31
35	29	-96	-92	31
35	29	-95	-90	31
34	29	-94	-87	31
33	29	-93	-85	31
32	29	-92	-82	31
32	29	-91	-80	31
31	29	-90	-77	31
30	28	-89	-74	31
29	28	-88	-72	31
29	28	-87	-69	31
28	28	-86	-67	31
27	28	-85	-64	31
26	28	-84	-62	31
26	28	-83	-59	31
25	28	-82	-57	31
24	28	-81	-54	31
23	28	-80	-51	31
22	28	-79	-49	31
22	28	-78	-46	31
21	28	-77	-44	31
20	28	-76	-41	31
19	28	-75	-39	31
19	28	-74	-36	31
18	28	-73	-34	31
17	27	-72	-31	31
16	27	-71	-28	31
16	27	-70	-26	31
15	27	-69	-23	31
14	27	-68	-21	31
13	27	-67	-18	31
13	27	-66	-16	31
12	27	-65	-13	31
11	27	-64	-11	31
10	27	-63	-8	31
10	27	-62	-5	31
9	27	-61	-3	31
8	27	-60	0	31
7	27	-59	2	31
7	27	-58	5	31
6	27	-57	7	31
5	27	-56	10	31
4	26	-55	13	31
4	26	-54	15	31
3	26	-53	18	31
2	26	-52	20	31
1	26	-51	23	31
0	26	-50	25	31
0	26	-49	28	31
-1	26	-48	30	31
-2	26	-47	33	31
-3	26	-46	36	31
-3	26	-45	38	31
-4	26	-44	41	31
-5	26	-43	43	31
-6	26	-42	46	31
-6	26	-41	48	31
-7	26	-40	51	31
-8	26	-39	53	31
-9	25	-38	56	31
-9	25	-37	59	31
-10	25	-36	61	31
-11	25	-35	64	31
-12	25	-34	66	31
-12	25	-33	69	31
-13	25	-32	71	31
-14	25	-31	74	31
-15	25	-30	76	31
-15	25	-29	79	31
-16	25	-28	82	31
-17	25	-27	84	31
-18	25	-26	87	31
-18	25	-25	89	31
-19	25	-24	92	31
-20	25	-23	94	31
-21	25	-22	97	31
-22	24	-21	100	31
-24	45	-21	-67	31
-28	131	-2	-24	31
-47	196	-32	-43	31
-59	196	-19	-49	31
-58	115	4	6	31
-64	-38	18	61	31
-31	-141	-33	86	31
32	-77	-32	12	31
27	-2	6	22	31
19	-5	-62	-87	31
31	30	-111	-156	31
-1	79	-79	-122	31
-27	164	-4	-36	31
-42	217	123	170	31
-49	169	194	309	31
-24	61	177	89	31
2	-149	163	-129	31
36	-247	124	-66	31
46	-119	33	-153	31
25	-47	-98	-122	31
2	-32	-148	12	31
21	1	-197	296	31
46	-22	-201	231	31
11	-16	-98	-170	31
1	-11	-82	-188	31
1	-8	57	-153	31
-11	6	78	39	31
-8	1	26	22	31
-7	24	43	-71	31
1	21	-12	3	31
0	24	19	-31	31
8	34	-69	18	31
-10	16	-96	111	31
-43	6	-4	198	31
-37	-10	81	108	31
-7	-1	134	26	31
2	12	100	-55	31
-17	11	85	-149	31
-9	13	39	94	31
-12	3	-125	214	31
-9	-3	-146	-123	31
18	7	1	-190	31
-12	9	16	7	31
-53	2	69	-215	31
-49	6	24	-144	31
-32	9	-59	54	31
-6	9	-31	36	31
17	1	-67	111	31
26	9	-39	2	31
39	33	-27	-120	31
42	12	-20	-227	31
64	-11	-18	-130	31
62	-28	-14	34	31
16	-31	42	62	31
-1	-12	80	123	31
-95	-44	58	156	31
-134	-34	17	158	31
-83	-7	6	-3	31
-44	3	22	-231	31
135	80	47	-96	31
214	90	-2	112	31
90	16	-37	-17	31
25	-60	-109	-16	31
-7	-132	-77	-70	31
-11	-101	97	-102	31
2	-11	199	-41	31
-33	75	163	-27	31
-37	138	-90	195	31
-46	122	-196	284	31
-39	18	-132	150	31
-30	-156	-70	62	31
-33	-208	53	57	31
-15	-74	37	-65	31
-16	12	-34	-219	31
-28	-4	-38	-117	31
-17	-21	-42	52	31
37	-59	-60	52	31
22	-39	-101	144	31
-26	20	-50	95	31
4	26	26	-31	31
11	58	9	-123	31
22	56	64	-282	31
11	18	197	-70	31
-61	7	190	184	31
-47	29	65	324	31
23	69	27	307	31
55	70	17	152	31
42	29	-13	254	31
7	-3	-3	143	31
7	-3	-3	143	31
7	-3	-3	142	31
7	-2	-2	140	31
7	-2	-2	138	31
7	-1	-1	137	31
7	0	-1	135	31
8	0	0	133	31
8	1	0	132	31
8	1	1	130	31
8	2	1	128	31
8	3	2	127	31
8	3	2	125	31
9	4	3	123	31
9	4	3	122	31
9	5	4	120	31
9	6	4	118	31
9	6	5	117	31
9	7	5	115	31
10	7	6	113	31
10	8	6	111	31
10	9	7	110	31
10	9	7	108	31
10	10	8	106	31
10	10	8	105	31
11	11	9	103	31
11	12	9	101	31
11	12	10	100	31
11	13	10	98	31
11	13	11	96	31
11	14	11	95	31
12	15	12	93	31
12	15	12	91	31
12	16	13	90	31
12	16	13	88	31
12	17	14	86	31
13	18	14	84	31
13	18	15	83	31
13	19	15	81	31
13	19	16	79	31
13	20	16	78	31
13	21	17	76	31
14	21	17	74	31
14	22	18	73	31
14	22	18	71	31
14	23	19	69	31
14	24	19	68	31
14	24	20	66	31
15	25	20	64	31
15	25	21	63	31
15	26	21	61	31
15	27	22	59	31
15	27	22	58	31
15	28	23	56	31
16	28	23	54	31
16	29	24	52	31
16	30	24	51	31
16	30	25	49	31
16	31	25	47	31
16	31	26	46	31
17	32	26	44	31
17	33	27	42	31
17	33	27	41	31
17	34	28	39	31
17	34	28	37	31
17	35	29	36	31
18	36	29	34	31
18	36	30	32	31
18	37	30	31	31
18	37	31	29	31
18	38	31	27	31
19	39	32	25	31
9	38	31	-17	31
-6	2	-6	9	31
6	-32	3	-17	31
-4	-42	32	-17	31
-39	-36	49	-12	31
-62	-7	53	-36	31
-56	19	-1	14	31
-15	11	-86	105	31
-9	-19	-137	197	31
36	-21	-141	171	31
110	-5	-27	-7	31
52	-7	97	4	31
-3	1	94	129	31
-7	-2	33	11	31
-23	-10	-75	-281	31
-30	-1	-178	-563	31
-72	22	-192	-405	31
-107	56	-80	14	31
-175	34	29	98	31
-175	34	29	98	31
-175	34	28	98	31
-174	34	27	98	31
-173	33	26	98	31
-172	33	25	98	31
-171	32	24	98	31
-170	32	23	98	31
-169	32	22	98	31
-168	31	21	98	31
-167	31	20	98	31
-166	30	19	98	31
-165	30	18	98	31
-164	29	17	98	31
-163	29	16	98	31
-162	29	15	98	31
-161	28	14	98	31
-161	28	13	98	31
-160	27	12	98	31
-159	27	11	98	31
-158	26	10	98	31
-157	26	9	98	31
-156	26	8	98	31
-155	25	7	98	31
-154	25	6	98	31
-153	24	5	99	31
-152	24	4	99	31
-151	23	3	99	31
-150	23	2	99	31
-149	23	1	99	31
-148	22	0	99	31
-147	22	-2	99	31
-147	21	-3	99	31
-146	21	-4	99	31
-145	20	-5	99	31
-144	20	-6	99	31
-143	20	-7	99	31
-142	19	-8	99	31
-141	19	-9	99	31
-140	18	-10	99	31
-139	18	-11	99	31
-138	17	-12	99	31
-137	17	-13	99	31
-136	17	-14	99	31
-135	16	-15	99	31
-134	16	-16	99	31
-133	15	-17	99	31
-133	15	-18	99	31
-132	15	-19	99	31
-131	14	-20	100	31
-130	14	-21	100	31
-129	13	-22	100	31
-128	13	-23	100	31
-127	12	-24	100	31
-126	12	-25	100	31
-125	12	-26	100	31
-124	11	-27	100	31
-123	11	-28	100	31
-122	10	-29	100	31
-121	10	-30	100	31
-120	9	-31	100	31
-119	9	-33	100	31
-119	9	-34	100	31
-118	8	-35	100	31
-117	8	-36	100	31
-116	7	-37	100	31
-115	7	-38	100	31
-114	6	-39	100	31
-113	6	-40	100	31
-112	6	-41	100	31
-111	5	-42	100	31
-110	5	-43	100	31
-109	4	-44	100	31
-108	4	-45	101	31
-107	3	-46	101	31
-106	3	-47	101	31
-105	3	-48	101	31
-105	2	-49	101	31
-104	2	-50	101	31
-103	1	-51	101	31
-102	1	-52	101	31
-101	0	-53	101	31
-100	0	-54	101	31
-99	0	-55	101	31
-98	-1	-56	101	31
-97	-1	-57	101	31
-96	-2	-58	101	31
-95	-2	-59	101	31
-94	-2	-60	101	31
-93	-3	-61	101	31
-92	-3	-62	101	31
-91	-4	-64	101	31
-91	-4	-65	101	31
-90	-5	-66	101	31
-89	-5	-67	101	31
-88	-5	-68	101	31
-87	-6	-69	101	31
-86	-6	-70	102	31
-85	-7	-71	102	31
-84	-7	-72	102	31
-83	-8	-73	102	31
-82	-8	-74	102	31
-81	-8	-75	102	31
-80	-9	-76	102	31
-79	-9	-77	102	31
-78	-10	-78	102	31
-77	-10	-79	102	31
-77	-11	-80	102	31
-76	-11	-81	102	31
-75	-11	-82	102	31
-74	-12	-83	102	31
-73	-12	-84	102	31
-72	-13	-85	102	31
-71	-13	-86	102	31
-70	-14	-87	102	31
-69	-14	-88	102	31
-68	-14	-89	102	31
-67	-15	-90	102	31
-66	-15	-91	102	31
-65	-16	-92	102	31
-64	-16	-93	102	31
-63	-17	-95	103	31
-22	-14	-20	50	31
22	-60	53	-14	31
36	-29	2	-49	31
-1	117	-32	-74	31
2	353	-12	86	31
69	430	55	218	31
70	289	13	119	31
26	25	-39	-84	31
54	-444	-41	-38	31
83	-604	-35	-27	31
49	-343	44	-33	31
26	-158	21	-4	31
1	-34	-6	-34	31
-21	9	-13	-104	31
-11	16	-37	-144	31
1	54	-18	-64	31
-38	79	27	-57	31
-74	130	65	25	31
-59	200	91	108	31
-44	391	176	73	31
-52	466	168	50	31
-76	369	87	21	31
-17	151	-10	5	31
41	-381	-103	-152	31
77	-632	-163	-203	31
116	-394	-176	-2	31
98	-263	-90	105	31
72	-123	-37	112	31
-8	28	19	77	31
-60	59	16	5	31
-66	176	-90	-37	31
-97	179	-108	-28	31
-103	98	-117	3	31
-75	-32	-67	45	31
-14	-201	26	103	31
19	-133	29	122	31
6	-27	55	77	31
4	-58	44	12	31
6	-24	4	-121	31
-11	49	-48	-211	31
-39	39	-32	-90	31
-44	48	44	8	31
-28	45	44	-114	31
-1	40	79	-43	31
47	58	117	55	31
53	37	76	-16	31
19	37	-31	-6	31
2	35	-138	-85	31
3	36	-141	-178	31
-5	47	-59	-239	31
-25	40	54	-40	31
-28	41	80	314	31
-14	38	-4	320	31
-3	30	70	120	31
9	19	190	97	31
4	7	130	72	31
-6	5	36	-120	31
3	15	-90	-17	31
-17	16	-211	11	31
-49	7	-114	-70	31
-70	7	19	-23	31
-97	3	46	-54	31
-108	-3	113	63	31
-89	1	84	55	31
43	1	3	-47	31
194	2	-22	-21	31
171	12	-7	55	31
110	16	-22	138	31
64	7	-49	65	31
27	-15	-57	-62	31
45	-34	-18	-39	31
6	-22	52	-31	31
-15	1	16	-20	31
-33	7	5	1	31
-57	-1	-82	-37	31
-44	-6	-87	-36	31
-33	-10	6	3	31
-14	-15	0	105	31
24	-7	60	57	31
47	-2	86	-105	31
9	-2	69	-41	31
12	4	-5	51	31
-21	-10	-69	12	31
-68	-11	-29	20	31
-50	-4	6	23	31
-2	-2	103	-32	31
100	24	156	-68	31
84	55	84	-50	31
-12	63	1	-61	31
-30	60	-111	-7	31
-45	87	-192	33	31
-53	147	-173	-34	31
-36	179	-111	-17	31
-49	138	-58	12	31
-44	-7	-4	1	31
12	-251	11	46	31
114	-356	2	135	31
163	-262	-2	67	31
87	-181	54	-143	31
30	-98	105	-77	31
-11	-60	70	85	31
-38	-34	43	-4	31
-39	62	19	-62	31
-52	115	39	-27	31
-62	88	-15	-42	31
-69	-5	-86	-30	31
-46	-97	-31	-13	31
-35	-87	50	33	31
-26	118	96	170	31
-26	265	110	208	31
-53	246	105	67	31
-45	143	49	-111	31
-13	-130	-12	-157	31
20	-257	-34	-204	31
51	-245	-7	-214	31
56	-182	-142	-82	31
37	59	-216	12	31
31	189	-19	94	31
29	179	93	289	31
26	108	82	378	31
-2	-74	-8	44	31
-4	-216	-17	-117	31
15	-34	-4	-37	31
-21	191	-107	-101	31
-36	38	-114	-71	31
-7	-124	-84	-7	31
32	-86	-42	-6	31
14	110	70	-50	31
-8	113	91	-41	31
-12	-191	8	-21	31
5	-280	-37	-28	31
44	-161	-49	2	31
10	-45	12	-1	31
-19	-19	44	-38	31
-36	35	17	-24	31
-41	118	42	101	31
-19	132	100	274	31
3	138	167	113	31
19	91	128	-199	31
2	67	-16	-126	31
-10	161	-119	-113	31
-26	227	-75	-59	31
-34	120	-10	-37	31
-37	-17	-60	-60	31
-31	-152	-110	180	31
-6	-136	-55	45	31
-1	-4	24	32	31
31	-42	64	104	31
64	-92	5	85	31
29	-125	-70	187	31
-33	139	1	-36	31
-115	844	44	-232	31
-234	1348	-14	-177	31
-270	1093	-75	-53	31
-175	-32	-46	-2	31
10	-1445	35	62	31
217	-1559	38	87	31
375	-493	2	42	31
427	-244	-57	30	31
286	-426	-68	1	31
105	-406	-6	11	31
44	-321	42	70	31
-25	-105	137	2	31
-90	-141	211	-170	31
-75	-28	151	-162	31
-60	47	-4	34	31
-49	76	-153	216	31
-47	166	-29	163	31
-29	112	151	-31	31
-13	173	32	-87	31
-31	164	-90	-82	31
-29	190	-103	-110	31
-47	204	-71	12	31
-55	172	-57	133	31
-31	191	-89	119	31
14	218	-105	132	31
21	320	-57	5	31
-44	278	92	-157	31
-50	184	128	-69	31
-57	84	80	29	31
-68	-75	47	36	31
-36	-137	24	-7	31
-22	-145	4	-89	31
-16	-113	-32	-129	31
-25	-59	2	-113	31
9	-28	-62	-14	31
38	-22	-151	-40	31
12	-24	-65	-88	31
-16	45	13	27	31
-31	103	47	59	31
-37	95	87	76	31
-57	158	90	163	31
-95	403	74	195	31
-238	1248	86	69	31
-422	1970	55	-57	31
-401	1625	-30	-120	31
-219	113	-161	-183	31
138	-1956	-239	-129	31
607	-2205	-154	-140	31
607	-2205	-154	-140	31
601	-2181	-148	-143	31
594	-2157	-141	-147	31
587	-2132	-135	-151	31
580	-2108	-128	-155	31
573	-2084	-121	-159	31
567	-2059	-115	-163	31
560	-2035	-108	-167	31
553	-2011	-102	-171	31
546	-1986	-95	-175	31
539	-1962	-88	-179	31
533	-1938	-82	-183	31
526	-1913	-75	-187	31
519	-1889	-68	-191	31
512	-1865	-62	-195	31
505	-1840	-55	-199	31
498	-1816	-49	-203	31
492	-1792	-42	-207	31
485	-1767	-35	-211	31
478	-1743	-29	-215	31
471	-1719	-22	-219	31
464	-1694	-16	-223	31
458	-1670	-9	-227	31
451	-1646	-2	-231	31
444	-1621	4	-235	31
437	-1597	11	-239	31
430	-1573	18	-243	31
423	-1548	24	-247	31
417	-1524	31	-251	31
410	-1500	37	-255	31
403	-1475	44	-259	31
396	-1451	51	-262	31
389	-1427	57	-266	31
383	-1402	64	-270	31
376	-1378	70	-274	31
369	-1354	77	-278	31
362	-1329	84	-282	31
355	-1305	90	-286	31
348	-1281	97	-290	31
342	-1256	104	-294	31
335	-1232	110	-298	31
328	-1208	117	-302	31
321	-1183	123	-306	31
314	-1159	130	-310	31
308	-1135	137	-314	31
301	-1110	143	-318	31
294	-1086	150	-322	31
287	-1062	156	-326	31
280	-1037	163	-330	31
273	-1013	170	-334	31
267	-989	176	-338	31
260	-964	183	-342	31
253	-940	190	-346	31
246	-916	196	-350	31
239	-891	203	-354	31
233	-867	209	-358	31
226	-843	216	-362	31
219	-818	223	-366	31
212	-794	229	-370	31
205	-770	236	-374	31
198	-745	243	-378	31
191	-103	120	-50	31
-16	631	100	-8	31
-305	1807	44	-41	31
-454	2051	52	30	31
-511	1127	-39	202	31
-304	-694	-200	11	31
123	-2144	-238	-64	31
370	-2033	-186	-7	31
469	-1118	19	-75	31
421	-384	108	-127	31
237	30	-101	5	31
72	439	-223	110	31
-67	1070	-243	147	31
-270	1420	-171	332	31
-246	962	-29	153	31
-34	-70	138	237	31
138	-1197	309	193	31
239	-1223	269	-112	31
179	-439	228	-39	31
115	-172	181	-79	31
53	-41	29	11	31
48	-5	-72	31	31
34	-54	-179	103	31
-85	32	-347	126	31
-140	29	-442	22	31
-185	36	-275	-30	31
-183	47	-33	-226	31
-127	176	17	-295	31
-57	333	148	-7	31
19	512	251	100	31
38	735	158	-90	31
104	747	70	36	31
98	662	20	20	31
2	257	76	77	31
16	-514	135	115	31
-25	-1009	247	-107	31
-64	-849	249	-69	31
-26	-155	45	46	31
-113	338	-190	160	31
-178	533	-390	-67	31
-160	692	-315	-305	31
-47	513	-55	-134	31
159	203	142	-53	31
161	-504	161	-60	31
73	-1274	132	-70	31
90	-832	138	7	31
20	-411	-7	238	31
-152	-394	32	204	31
-213	-147	326	63	31
-213	-147	326	63	31
-212	-147	324	64	31
-210	-148	321	66	31
-208	-148	318	68	31
-206	-149	316	70	31
-204	-149	313	72	31
-202	-150	310	74	31
-200	-151	308	76	31
-198	-151	305	78	31
-196	-152	302	80	31
-194	-152	299	82	31
-192	-153	297	84	31
-190	-154	294	86	31
-188	-154	291	88	31
-186	-155	289	90	31
-184	-155	286	92	31
-182	-156	283	94	31
-180	-156	280	96	31
-178	-157	278	98	31
-176	-158	275	100	31
-174	-158	272	102	31
-172	-159	270	104	31
-170	-159	267	106	31
-168	-160	264	108	31
-166	-161	261	110	31
-164	-161	259	112	31
-162	-162	256	114	31
-160	-162	253	116	31
-158	-163	251	118	31
-156	-163	248	120	31
-154	-164	245	122	31
-152	-165	243	124	31
-150	-165	240	126	31
-148	-166	237	128	31
-146	-166	234	130	31
-144	-167	232	132	31
-142	-168	229	134	31
-140	-168	226	136	31
-138	-169	224	138	31
-136	-169	221	140	31
-134	-170	218	142	31
-132	-170	215	143	31
-130	-171	213	145	31
-128	-172	210	147	31
-126	-172	207	149	31
-124	-173	205	151	31
-122	-173	202	153	31
-120	-174	199	155	31
-118	-175	196	157	31
-116	-175	194	159	31
-114	-176	191	161	31
-112	-176	188	163	31
-110	-177	186	165	31
-108	-177	183	167	31
-106	-178	180	169	31
-104	-179	178	171	31
-102	-179	175	173	31
-100	-180	172	175	31
-98	-180	169	177	31
-96	-181	167	179	31
-94	-182	164	181	31
-92	-182	161	183	31
-90	-183	159	185	31
-88	-183	156	187	31
-86	-184	153	189	31
-84	-184	150	191	31
-82	-185	148	193	31
-80	-186	145	195	31
-78	-186	142	197	31
-76	-187	140	199	31
-74	-187	137	201	31
-72	-188	134	203	31
-70	-189	131	205	31
-68	-189	129	207	31
-66	-190	126	209	31
-64	-190	123	211	31
-62	-191	121	213	31
-60	-191	118	215	31
-58	-192	115	217	31
-56	-193	113	219	31
-54	-193	110	221	31
-52	-194	107	222	31
-50	-194	104	224	31
-48	-195	102	226	31
-46	-196	99	228	31
-44	-196	96	230	31
-42	-197	94	232	31
-40	-197	91	234	31
-38	-198	88	236	31
-36	-198	85	238	31
-34	-199	83	240	31
-32	-200	80	242	31
-30	-200	77	244	31
-28	-201	75	246	31
-26	-201	72	248	31
-24	-202	69	250	31
-22	-203	66	252	31
-20	-203	64	254	31
-18	-204	61	256	31
-16	-204	58	258	31
-14	-205	56	260	31
-12	-205	53	262	31
-10	-206	50	264	31
-8	-207	48	266	31
-6	-207	45	268	31
-4	-208	42	270	31
-2	-208	39	272	31
0	-209	37	274	31
2	-210	34	276	31
4	-210	31	278	31
6	-211	29	280	31
8	-211	26	282	31
10	-212	23	284	31
12	-212	20	286	31
14	-213	18	288	31
16	-214	15	290	31
18	-214	12	292	31
20	-215	10	294	31
22	-215	7	296	31
24	-216	4	298	31
26	-217	1	300	31
68	-117	-43	507	31
168	-141	-86	375	31
186	-102	-65	157	31
65	-60	-48	-247	31
-27	-31	17	-456	31
-65	54	79	-343	31
-87	295	22	-173	31
-11	534	-107	57	31
-6	418	-67	151	31
-59	27	86	224	31
-79	-341	81	259	31
-69	-403	75	-21	31
59	-175	103	-206	31
67	-22	95	-160	31
24	80	47	-165	31
65	75	-69	-128	31
17	92	-57	36	31
-70	289	-244	352	31
-120	353	-391	346	31
-73	75	-4	-283	31
52	-460	184	-553	31
117	-616	117	-383	31
187	-383	55	-39	31
229	-257	-71	183	31
76	-167	-122	19	31
-16	32	-29	101	31
42	345	257	9	31
5	477	383	-169	31
-88	320	302	-134	31
-196	88	76	89	31
-191	-247	-219	118	31
-156	-586	-212	-170	31
-166	-526	-151	-36	31
-80	-227	-113	168	31
-22	-55	-73	207	31
34	92	-89	148	31
92	186	-89	152	31
133	211	-99	66	31
112	179	-52	-17	31
61	110	4	-50	31
73	103	161	-244	31
-2	112	214	-150	31
-41	131	89	10	31
-63	93	-36	167	31
-91	16	-148	279	31
-16	-9	-215	127	31
-11	26	-163	130	31
-28	111	26	69	31
-31	142	69	-126	31
-15	132	28	-12	31
-14	65	-5	-2	31
-67	-52	-7	85	31
-41	-95	116	239	31
2	-32	187	184	31
40	12	201	132	31
73	-13	119	-139	31
-10	-9	-1	-540	31
-60	-15	17	-529	31
-32	-37	-93	13	31
-37	-70	-55	161	31
23	-55	249	73	31
40	56	183	45	31
36	82	-73	-228	31
97	72	-275	-380	31
55	105	-413	-181	31
21	106	-331	-39	31
98	108	-47	-155	31
110	37	206	147	31
33	-34	232	399	31
1	29	92	263	31
-28	11	57	92	31
-103	-79	100	-65	31
-137	-69	-58	-163	31
-80	-81	-98	-250	31
-13	-133	-52	-151	31
9	-199	-14	10	31
-29	-232	149	241	31
7	-190	236	426	31
40	-176	134	396	31
10	-124	4	327	31
125	-65	-50	184	31
95	-2	-155	226	31
-12	96	-128	297	31
-37	123	-194	-197	31
-95	174	-332	-503	31
-121	169	-87	-497	31
-132	101	166	-542	31
-63	-14	216	-362	31
-10	-117	127	-180	31
79	108	54	55	31
224	440	-2	147	31
196	443	-27	55	31
63	115	52	152	31
34	-310	35	112	31
62	-449	77	102	31
32	-123	104	123	31
-43	188	113	193	31
-83	265	157	230	31
-25	241	57	54	31
48	86	2	34	31
6	-67	-96	-71	31
-87	-282	-270	-247	31
-79	-326	-295	-241	31
-111	-225	-240	-138	31
-164	-284	-70	-113	31
-141	-131	70	-56	31
-97	-96	41	4	31
-75	-199	33	-2	31
-80	-12	61	136	31
16	88	84	126	31
146	105	24	-73	31
168	73	-36	59	31
148	-77	-15	-22	31
122	-181	86	-201	31
-18	-176	209	-160	31
-93	-142	98	-177	31
-97	-92	-155	281	31
-72	36	-237	380	31
-24	165	-50	141	31
-89	278	9	263	31
-106	273	-87	219	31
-27	249	-33	188	31
140	246	44	241	31
256	156	145	-122	31
275	29	158	-608	31
189	-98	31	-115	31
-122	-99	-136	349	31
-219	-128	-135	-144	31
-215	-106	-10	-305	31
-307	-45	4	-297	31
-175	-129	-14	-269	31
31	-113	-55	-2	31
185	-30	6	230	31
213	47	79	287	31
248	68	55	60	31
142	79	22	39	31
-14	108	49	-149	31
90	105	242	-309	31
33	112	231	-252	31
-50	74	-28	-345	31
-65	52	-246	306	31
-87	31	-402	919	31
-41	18	-267	448	31
-26	32	-62	70	31
-15	41	-44	322	31
-7	77	67	158	31
-22	87	102	-166	31
-77	100	19	-516	31
-67	60	66	-589	31
-22	-30	31	-83	31
-9	-45	-5	54	31
-12	-12	86	6	31
-76	51	143	-129	31
-82	97	97	70	31
3	66	34	62	31
117	30	73	-130	31
219	-10	47	149	31
207	-87	-11	46	31
107	-102	-44	14	31
-49	-127	-93	49	31
-176	-237	-62	-214	31
-193	-272	-16	-312	31
-130	-180	-30	-156	31
-83	-57	4	-121	31
-93	19	74	-1	31
-41	75	42	264	31
-50	28	-32	300	31
-34	-90	-79	309	31
41	-79	-65	-79	31
125	1	37	-238	31
198	75	92	-1	31
61	126	110	-22	31
-93	151	166	-2	31
-159	83	140	-2	31
-83	-40	140	1	31
29	-102	36	37	31
62	-88	-192	-47	31
105	-21	-252	-121	31
103	1	-295	29	31
72	1	-230	170	31
19	-32	22	251	31
-4	-93	122	217	31
-6	-120	98	37	31
8	-87	6	59	31
-14	19	-136	106	31
-37	93	-110	133	31
19	151	-24	96	31
83	222	12	-87	31
72	225	102	-244	31
12	141	145	-211	31
17	19	67	-173	31
-37	-120	-59	-127	31
-71	-209	-137	138	31
-35	-112	-65	361	31
-24	22	39	314	31
-24	48	76	211	31
-8	62	102	82	31
2	26	64	-612	31
-89	-82	14	-1246	31
-137	-156	24	-453	31
-68	-70	67	493	31
-12	110	130	373	31
-54	158	197	27	31
-156	36	108	-166	31
-175	-150	-138	41	31
18	-246	-187	69	31
284	-213	-84	29	31
308	-104	-16	179	31
138	4	15	111	31
97	9	-41	135	31
55	36	-45	72	31
-25	60	-71	-76	31
-25	46	-151	-226	31
-86	72	-103	-215	31
-89	87	-85	-28	31
-75	123	-95	-12	31
-54	105	-53	145	31
12	56	-7	164	31
60	80	69	-24	31
105	130	155	-125	31
84	155	237	-271	31
29	79	218	-171	31
-28	-60	75	-134	31
-21	-182	-78	-62	31
10	-165	-239	434	31
-9	-65	-245	613	31
-36	12	-11	221	31
-17	132	163	229	31
16	151	250	251	31
10	140	279	-242	31
49	125	97	-194	31
56	31	-39	-68	31
10	-36	-36	-55	31
-48	-103	-55	10	31
-155	-197	-125	-25	31
-140	-269	-176	-40	31
-103	-198	-112	-107	31
-156	-88	-54	53	31
-123	-60	22	98	31
-59	-47	92	105	31
-19	-72	74	107	31
32	1	9	69	31
73	123	-70	-49	31
86	125	-54	-324	31
48	110	-83	-286	31
28	75	-103	-90	31
42	31	-69	117	31
32	49	18	222	31
7	25	216	182	31
-68	-69	203	103	31
-105	-115	-52	-119	31
-67	-84	-201	-218	31
-55	-33	-161	-260	31
-17	-14	-72	-277	31
133	-9	84	-65	31
276	47	238	-67	31
285	37	269	-130	31
184	-16	92	-132	31
65	27	-76	-4	31
42	101	-67	327	31
-8	134	-113	371	31
-68	92	-70	346	31
-69	1	-85	437	31
-85	-116	-151	-8	31
-38	-174	-127	-197	31
-65	-155	-171	67	31
-142	-56	-7	-163	31
-121	48	168	-155	31
-90	58	170	-72	31
-92	26	36	246	31
-100	-12	-76	281	31
-55	29	8	47	31
-72	98	-17	186	31
-87	92	17	-67	31
34	57	53	-292	31
132	-52	6	-578	31
177	-224	7	-350	31
95	-204	-40	-56	31
-9	-33	19	-80	31
-54	46	97	224	31
-37	65	135	209	31
70	47	77	96	31
44	4	-16	42	31
-22	-5	45	-77	31
4	21	93	-166	31
69	39	109	-181	31
102	32	69	-22	31
103	43	-124	66	31
46	38	-166	116	31
-60	22	22	235	31
-98	2	72	-13	31
-93	2	-7	-117	31
-7	55	-39	298	31
41	99	-4	148	31
-36	90	6	-62	31
-22	19	-133	111	31
57	-78	-179	9	31
-15	-103	-139	9	31
-141	3	-58	181	31
-158	59	-18	47	31
-86	1	-136	-337	31
69	-4	-16	-398	31
252	4	160	-269	31
366	-19	141	-113	31
212	-11	97	213	31
-59	15	-70	423	31
-95	16	-218	530	31
-77	15	-123	529	31
-19	-1	31	269	31
41	-42	118	-110	31
-51	-67	136	-734	31
-126	-77	151	-933	31
-168	-59	175	-171	31
-125	0	136	176	31
-17	20	97	148	31
13	-12	-10	127	31
16	-7	-79	-163	31
-37	23	-83	-165	31
-159	65	-75	-84	31
-138	72	-44	-21	31
-71	60	-77	54	31
-14	105	-47	100	31
133	206	-12	47	31
203	269	29	-29	31
219	162	82	-138	31
60	-44	36	-312	31
-96	-236	-83	-92	31
17	-317	-175	114	31
75	-307	-128	-20	31
119	-224	-25	118	31
32	-162	79	503	31
-112	-115	-2	750	31
-176	14	-204	562	31
-193	90	-165	246	31
-84	148	-49	268	31
-82	125	52	77	31
-70	51	213	-133	31
-166	21	206	-267	31
-287	-6	144	-627	31
-148	-1	267	-671	31
24	-26	204	-540	31
220	24	-3	-252	31
503	62	-79	59	31
426	-9	-126	44	31
118	-1	-50	252	31
105	11	13	190	31
7	-36	50	-198	31
9	-15	78	-266	31
110	35	-60	-90	31
52	29	-162	-51	31
-33	37	-242	-53	31
-256	57	-317	159	31
-362	71	-218	455	31
-353	91	-12	716	31
-231	51	103	762	31
-71	-16	90	469	31
247	-54	138	11	31
497	-55	209	-444	31
187	-47	126	-504	31
121	15	28	-342	31
299	44	82	-287	31
59	0	-1	-378	31
-139	16	43	-738	31
-135	12	209	-437	31
-153	20	112	-96	31
-140	28	55	82	31
-63	-40	-42	325	31
-1	-47	-82	186	31
-95	12	-26	123	31
-175	129	-67	80	31
-94	310	-100	77	31
-158	410	-93	136	31
-176	302	-36	227	31
-79	46	-59	392	31
-209	-317	-155	589	31
-233	-572	-274	587	31
-132	-449	-252	363	31
-2	-214	-22	223	31
363	-41	237	-208	31
385	75	396	-729	31
82	283	352	-805	31
93	409	199	-851	31
29	193	-58	-362	31
203	-112	-231	195	31
492	-489	-271	67	31
270	-554	-363	-8	31
-360	-260	-280	-196	31
-611	-77	-136	-138	31
-496	-22	-32	89	31
-633	90	120	253	31
51	404	158	417	31
625	368	193	469	31
415	-97	219	84	31
659	-402	178	-335	31
971	-372	200	238	31
698	-41	343	587	31
153	105	344	775	31
-132	113	195	867	31
-221	131	188	158	31
-292	-17	-136	-89	31
-317	-44	-499	49	31
-212	84	-546	-342	31
-67	266	-562	-593	31
-58	289	-210	-1103	31
-156	136	179	-951	31
-375	10	249	45	31
-305	-63	237	46	31
28	-123	186	354	31
137	-21	-257	441	31
-232	337	-529	-648	31
-939	363	-175	-1119	31
-907	240	-26	-473	31
-518	140	-91	214	31
-421	110	-21	202	31
-267	305	86	367	31
-302	47	74	367	31
-276	-616	89	-37	31
636	-991	326	457	31
2036	-618	554	920	31
2341	-178	411	575	31
1301	70	226	-129	31
244	39	-110	-680	31
17	-179	-621	-474	31
-62	-38	-457	-39	31
-302	50	-131	416	31
-668	254	-8	596	31
-1180	343	112	438	31
-1335	181	-19	471	31
-1124	33	-67	-12	31
-864	-153	-118	-53	31
79	-157	-80	146	31
904	15	147	-179	31
675	230	115	-996	31
1040	278	322	-1878	31
1123	86	677	-952	31
499	14	575	415	31
294	222	265	861	31
-113	229	-74	848	31
17	-110	-701	836	31
-146	-477	-1190	708	31
-182	-449	-1179	26	31
-3	-59	-616	-1058	31
-294	-26	128	-1114	31
-441	-111	343	-732	31
-998	71	760	-847	31
-837	217	1005	-1099	31
-377	135	767	-181	31
-161	-160	429	621	31
470	-300	-36	236	31
1261	-284	-147	797	31
1200	-251	12	526	31
269	-49	125	223	31
37	122	-21	109	31
-141	90	-32	-439	31
-420	124	40	-262	31
-364	112	-127	530	31
-312	98	-403	691	31
-26	148	-562	-220	31
168	98	-340	45	31
150	84	-94	346	31
-107	61	-52	229	31
-285	63	-112	90	31
-271	130	-100	-34	31
-274	177	22	105	31
-254	184	42	-61	31
-202	212	107	269	31
-21	280	378	254	31
5	236	528	216	31
-126	-33	309	162	31
-138	-281	-161	-150	31
-229	-98	-376	-35	31
-229	255	-299	234	31
-97	236	-208	602	31
-178	-50	-164	486	31
9	-246	-68	137	31
501	-176	36	-363	31
393	-28	224	-765	31
-74	-176	695	-486	31
-35	-370	794	163	31
73	-198	132	480	31
256	-85	-599	67	31
133	-201	-795	-591	31
-201	-84	-539	-388	31
67	85	-261	-7	31
4	130	-181	-295	31
100	77	-220	-5	31
38	-55	-184	-62	31
-246	-29	181	-60	31
206	-2	258	9	31
206	-2	258	9	31
201	1	257	6	31
196	5	255	3	31
191	9	253	0	31
186	13	251	-4	31
180	17	250	-7	31
175	21	248	-10	31
170	25	246	-14	31
165	29	244	-17	31
160	32	242	-20	31
154	36	241	-24	31
149	40	239	-27	31
144	44	237	-30	31
139	48	235	-34	31
134	52	233	-37	31
128	56	232	-40	31
123	60	230	-44	31
118	64	228	-47	31
113	67	226	-50	31
108	71	225	-53	31
102	75	223	-57	31
97	79	221	-60	31
92	83	219	-63	31
87	87	217	-67	31
82	91	216	-70	31
76	95	214	-73	31
71	99	212	-77	31
66	102	210	-80	31
61	106	208	-83	31
56	110	207	-87	31
50	114	205	-90	31
45	118	203	-93	31
40	122	201	-97	31
35	126	200	-100	31
30	130	198	-103	31
24	134	196	-107	31
19	137	194	-110	31
14	141	192	-113	31
9	145	191	-116	31
4	149	189	-120	31
-2	153	187	-123	31
-7	157	185	-126	31
-12	161	183	-130	31
-17	165	182	-133	31
-22	168	180	-136	31
-28	172	178	-140	31
-33	176	176	-143	31
-38	180	175	-146	31
-43	184	173	-150	31
-48	188	171	-153	31
-54	192	169	-156	31
-59	196	167	-160	31
-64	200	166	-163	31
-69	203	164	-166	31
-74	207	162	-169	31
-80	211	160	-173	31
-85	215	158	-176	31
-90	219	157	-179	31
-95	223	155	-183	31
-100	227	153	-186	31
-106	231	151	-189	31
-111	235	150	-193	31
-116	238	148	-196	31
-121	242	146	-199	31
-126	246	144	-203	31
-132	250	142	-206	31
-137	254	141	-209	31
-142	258	139	-213	31
-147	262	137	-216	31
-152	266	135	-219	31
-158	270	133	-223	31
77	111	149	232	31
-258	92	127	235	31
-116	304	60	31	31
211	459	-150	-31	31
9	282	-335	153	31
-49	-71	-299	289	31
-247	-141	-135	120	31
-67	-174	-209	493	31
170	-224	-176	569	31
192	-325	-12	320	31
146	-316	242	-203	31
145	-44	534	-984	31
203	97	467	-689	31
-92	310	-39	56	31
-287	376	-398	-26	31
-348	406	-377	-146	31
-300	460	-269	-70	31
-196	464	204	-60	31
-104	553	115	223	31
150	172	-155	238	31
209	-230	-56	208	31
256	-829	-154	43	31
297	-1584	15	-246	31
163	-1153	12	-228	31
119	-413	-107	-101	31
-12	-234	-132	-20	31
-88	47	-112	-173	31
-15	223	37	-53	31
30	276	127	-27	31
83	219	219	135	31
3	39	134	609	31
-100	183	19	282	31
-132	317	60	89	31
-282	209	56	203	31
-146	81	125	60	31
184	146	263	50	31
87	222	276	7	31
-75	91	192	23	31
-27	-145	-22	58	31
82	-403	-350	-100	31
89	-173	-519	-176	31
-140	262	-230	-103	31
-261	373	87	-328	31
-343	351	236	-333	31
-365	43	147	-110	31
-169	-85	-179	-94	31
-16	112	-120	192	31
51	166	-3	369	31
90	100	3	546	31
284	-162	-42	79	31
421	-128	-119	-772	31
360	-100	-211	-398	31
-24	-262	-107	-34	31
-246	-146	112	15	31
155	-87	43	40	31
499	109	41	-137	31
227	131	-126	44	31
-307	-62	-123	55	31
-272	-3	86	-34	31
-256	24	64	83	31
-1	27	54	115	31
360	-16	52	195	31
157	-58	172	300	31
-142	-44	156	250	31
-301	11	62	249	31
-21	45	-57	223	31
14	-5	-93	145	31
0	65	101	273	31
141	59	150	52	31
-82	-1	103	-447	31
-165	48	10	-818	31
-138	58	-128	-765	31
-175	9	-168	-151	31
89	-53	-44	156	31
386	-9	26	83	31
270	46	90	-26	31
89	22	133	-4	31
-8	27	77	143	31
-69	9	126	227	31
-69	12	54	105	31
-84	120	47	-219	31
-159	196	62	-173	31
-413	41	-90	33	31
-473	-236	-171	191	31
-189	-281	-245	72	31
381	-74	-178	136	31
674	-11	-31	545	31
231	-41	13	238	31
-93	115	-170	172	31
-193	209	-179	47	31
-406	192	83	-213	31
-506	166	94	-173	31
-574	112	107	-272	31
-541	-71	-39	-37	31
-297	-325	-242	-143	31
247	-307	-327	-490	31
1273	-198	-178	-441	31
1548	-232	153	-216	31
557	-42	335	206	31
151	14	428	458	31
82	-64	196	212	31
-128	32	28	94	31
-93	-42	-9	-6	31
-266	45	15	-23	31
-208	208	59	37	31
-137	255	16	-72	31
-282	183	67	-188	31
-256	-67	58	-271	31
-55	-188	3	10	31
219	-103	-35	-19	31
188	27	42	-219	31
-45	7	57	-1	31
-97	-49	92	630	31
-202	-45	39	627	31
-146	32	-188	-68	31
-52	61	-188	2	31
-8	30	-199	44	31
39	74	-117	-14	31
-77	18	-9	108	31
-57	-3	-58	77	31
-22	4	-93	145	31
72	-24	-130	35	31
-108	27	-39	6	31
-267	80	14	-1	31
-115	105	3	29	31
-92	9	58	122	31
122	-88	47	34	31
132	-15	93	-192	31
29	19	201	-360	31
228	-22	188	-180	31
224	110	59	-206	31
-44	167	-90	-87	31
-143	1	-126	39	31
-112	-188	-75	-108	31
-138	-208	-52	125	31
49	-96	87	28	31
174	-62	148	12	31
-21	57	-55	-9	31
-162	102	-194	-455	31
-234	55	-109	-97	31
-189	-21	81	219	31
19	-128	72	-52	31
175	-29	-77	62	31
376	68	-184	67	31
233	28	-96	125	31
-26	3	41	386	31
21	-29	91	339	31
5	-13	105	88	31
92	13	-59	-254	31
-1	-41	-72	-526	31
-67	3	34	-421	31
1	47	70	-46	31
-77	106	110	145	31
-29	165	59	308	31
-74	17	9	286	31
-106	-152	59	120	31
-112	-227	118	-130	31
-177	-140	133	-584	31
-185	59	50	-312	31
-50	154	-114	70	31
75	101	-132	-10	31
229	-43	-32	26	31
390	-78	84	17	31
149	24	279	129	31
-97	120	303	388	31
-208	70	-21	320	31
-92	-77	-352	-22	31
42	-95	-404	42	31
92	-26	-143	-144	31
200	31	-34	-320	31
136	28	-125	-42	31
-31	14	-65	-52	31
-243	70	54	296	31
-197	72	132	482	31
-166	-16	-24	166	31
-13	-66	-62	153	31
251	-50	-18	53	31
127	-36	87	-315	31
-27	-17	151	-194	31
22	-8	32	79	31
52	24	32	-62	31
-47	78	-14	-161	31
-59	108	6	-211	31
-150	146	-80	-176	31
-312	31	-111	-97	31
-317	-120	-80	97	31
134	-148	-14	33	31
534	-73	117	-67	31
-74	21	1	367	31
-175	5	163	277	31
-33	-1	269	29	31
-53	7	163	70	31
403	57	84	-123	31
199	-68	-75	-266	31
71	-72	-98	-426	31
170	143	-45	-311	31
21	45	-31	88	31
-140	160	-72	94	31
-221	510	-166	69	31
-223	321	-136	-127	31
-18	-455	62	12	31
124	-801	63	486	31
-11	-274	8	296	31
-128	24	-34	-78	31
-327	-101	22	80	31
36	-50	262	173	31
471	57	129	109	31
354	62	-134	216	31
-22	32	-300	-221	31
-110	-34	-310	-173	31
181	-4	-60	104	31
78	70	24	-79	31
-35	60	72	11	31
-138	80	45	95	31
-105	13	24	-118	31
14	-15	151	-346	31
36	22	129	-267	31
-50	57	60	-130	31
-245	77	-125	12	31
-135	-63	-232	-21	31
-177	4	-123	-100	31
-91	87	59	-66	31
123	59	157	82	31
244	92	36	345	31
242	4	-167	189	31
-41	-50	-272	-197	31
-11	-50	-87	-359	31
13	21	58	26	31
-9	97	183	406	31
6	103	281	522	31
-176	125	171	480	31
-204	54	25	134	31
-98	20	-195	-206	31
-50	-80	-153	-789	31
-46	-313	52	-440	31
75	-133	46	132	31
6	156	39	-243	31
-100	145	112	-205	31
137	-2	183	-148	31
197	-263	167	-67	31
189	-353	60	32	31
175	-193	-91	60	31
-12	-32	-188	375	31
-46	6	-203	229	31
-49	1	-287	137	31
-50	25	-225	297	31
-26	53	171	140	31
-42	55	441	117	31
-3	41	419	69	31
14	64	133	-58	31
7	64	-257	-68	31
-4	47	-254	-181	31
-39	40	-86	-386	31
-106	77	-52	-185	31
-164	170	-31	140	31
-123	221	-12	32	31
-107	251	24	63	31
-82	191	100	147	31
89	-42	109	50	31
89	-42	109	50	31
87	-41	109	49	31
85	-40	108	48	31
83	-39	107	46	31
81	-38	106	45	31
79	-37	105	44	31
77	-36	105	42	31
75	-35	104	41	31
73	-34	103	40	31
71	-32	102	38	31
69	-31	101	37	31
67	-30	101	35	31
65	-29	100	34	31
63	-28	99	33	31
61	-27	98	31	31
59	-26	97	30	31
57	-25	97	29	31
55	-24	96	27	31
53	-22	95	26	31
51	-21	94	25	31
49	-20	93	23	31
47	-19	93	22	31
45	-18	92	20	31
43	-17	91	19	31
41	-16	90	18	31
39	-15	89	16	31
37	-13	89	15	31
35	-12	88	14	31
33	-11	87	12	31
31	-10	86	11	31
29	-9	85	9	31
27	-8	85	8	31
25	-7	84	7	31
23	-6	83	5	31
21	-5	82	4	31
19	-3	81	3	31
17	-2	81	1	31
15	-1	80	0	31
13	0	79	-1	31
11	1	78	-3	31
9	2	77	-4	31
7	3	77	-6	31
5	4	76	-7	31
3	6	75	-8	31
1	7	74	-10	31
-1	8	73	-11	31
-3	9	73	-12	31
-5	10	72	-14	31
-7	11	71	-15	31
-9	12	70	-16	31
-11	13	69	-18	31
-13	14	69	-19	31
-15	16	68	-21	31
-17	17	67	-22	31
-19	18	66	-23	31
-21	19	65	-25	31
-23	20	65	-26	31
-25	21	64	-27	31
-27	22	63	-29	31
-29	23	62	-30	31
-31	25	61	-32	31
-27	40	94	-175	31
-17	35	-67	-49	31
-50	32	-179	357	31
-2	39	-67	312	31
74	80	24	207	31
22	136	41	252	31
-95	134	-49	-157	31
-87	46	-77	-430	31
-89	-93	71	-158	31
6	-199	125	-123	31
79	-117	13	-145	31
101	19	-234	57	31
124	19	-325	17	31
34	55	-132	-19	31
-1	31	75	-322	31
-41	-64	269	-435	31
-54	-67	263	216	31
-51	-6	236	454	31
-48	74	127	164	31
-37	83	-62	-50	31
-70	36	-27	1	31
-31	-75	-14	-19	31
94	-146	-21	-297	31
183	-73	-7	-84	31
54	35	20	-55	31
-19	77	6	-206	31
28	54	-67	-62	31
-41	7	-60	-80	31
-31	-62	-24	54	31
-9	-50	-30	170	31
10	6	-1	130	31
-10	-4	-10	119	31
-86	-13	-23	207	31
-72	11	26	135	31
-46	54	-42	-70	31
-31	131	14	-52	31
-70	135	59	27	31
-133	31	52	77	31
-65	-52	123	121	31
88	-28	37	57	31
151	71	-99	-1	31
82	85	-124	-11	31
46	64	-37	-91	31
156	35	-56	-100	31
216	-59	-22	-132	31
37	-51	19	-104	31
-123	55	19	29	31
37	123	100	79	31
82	80	97	361	31
-85	-49	29	500	31
-309	-133	-33	-130	31
-138	-62	-39	-249	31
245	-65	-80	18	31
155	-213	-189	-168	31
70	-135	-145	-183	31
-133	-9	-4	-59	31
-148	-72	-39	114	31
55	-226	11	72	31
91	-208	35	-1	31
146	-20	32	-181	31
-20	6	88	-268	31
-102	47	69	-57	31
-135	59	122	43	31
-163	54	52	101	31
-96	54	-42	-30	31
-34	31	-85	12	31
299	135	-128	31	31
413	224	-99	-40	31
29	329	-64	76	31
-91	313	20	188	31
-108	127	148	427	31
-222	-169	132	153	31
-127	-436	59	-376	31
-55	-376	4	-127	31
-5	-178	-34	-45	31
-75	-31	38	-267	31
-132	50	-17	-9	31
-120	159	-31	7	31
-73	270	-16	5	31
150	274	-3	44	31
111	269	42	-9	31
-132	254	-31	53	31
-132	122	0	-34	31
-37	-140	50	-7	31
146	-323	102	11	31
376	-151	72	19	31
211	289	-22	39	31
-30	484	-60	35	31
87	258	-39	49	31
134	-313	60	43	31
118	-773	128	52	31
175	-492	139	24	31
71	-185	85	21	31
36	-248	25	-7	31
1	-171	-25	-62	31
-55	49	-60	-49	31
-113	619	-152	19	31
-216	1008	-215	-11	31
-220	727	-208	-68	31
-179	37	-158	-168	31
-37	-909	-48	-241	31
95	-1136	13	-24	31
111	-601	108	140	31
41	-256	158	324	31
-109	171	62	280	31
-194	471	10	-108	31
-145	224	-11	-1	31
-65	-209	-49	27	31
51	-709	21	-3	31
148	-547	19	60	31
87	14	-118	-76	31
-6	186	-98	-19	31
-31	320	22	14	31
-16	253	122	2	31
2	6	208	-20	31
12	-121	160	7	31
7	-60	-16	-1	31
-22	170	-290	-49	31
-80	467	-385	-259	31
-140	951	-155	-373	31
-84	1129	-16	-62	31
22	535	105	18	31
29	-495	175	83	31
29	-1044	213	334	31
46	-356	307	343	31
-74	622	135	1	31
-173	871	-70	-92	31
-136	637	-72	4	31
-75	-124	14	14	31
100	-960	24	89	31
214	-1036	22	17	31
161	-871	35	-30	31
145	-627	-48	-57	31
111	-277	-161	-16	31
62	-189	-193	-1	31
53	-17	-266	-25	31
62	76	-196	-108	31
73	124	70	-94	31
1	229	100	-12	31
-47	264	82	-93	31
-47	386	135	-32	31
-58	422	205	76	31
-72	378	248	137	31
-130	151	70	178	31
-170	72	-80	145	31
-225	399	69	-92	31
-218	593	106	-156	31
-168	598	-109	-1	31
-128	41	-244	50	31
-128	41	-244	50	31
-128	44	-242	46	31
-128	47	-239	42	31
-129	51	-236	38	31
-129	54	-233	33	31
-129	57	-230	29	31
-130	61	-227	25	31
-130	64	-224	20	31
-130	67	-221	16	31
-131	71	-218	12	31
-131	74	-215	7	31
-131	77	-212	3	31
-132	81	-209	-1	31
-132	84	-206	-6	31
-132	87	-203	-10	31
-133	91	-200	-14	31
-133	94	-197	-19	31
-133	97	-194	-23	31
-134	101	-191	-27	31
-134	104	-188	-32	31
-135	107	-185	-36	31
-135	111	-182	-40	31
-135	114	-179	-44	31
-136	117	-176	-49	31
-136	121	-173	-53	31
-136	124	-170	-57	31
-137	127	-167	-62	31
-137	131	-164	-66	31
-137	134	-161	-70	31
-138	137	-158	-75	31
-138	141	-155	-79	31
-138	144	-152	-83	31
-139	147	-149	-88	31
-139	151	-146	-92	31
-139	154	-143	-96	31
-140	157	-140	-101	31
-140	161	-137	-105	31
-140	164	-134	-109	31
-141	167	-131	-114	31
-141	171	-128	-118	31
-142	174	-125	-122	31
-142	177	-122	-126	31
-142	181	-119	-131	31
-143	184	-116	-135	31
-143	187	-113	-139	31
-143	191	-110	-144	31
-144	194	-107	-148	31
-144	197	-104	-152	31
-144	201	-101	-157	31
-145	204	-98	-161	31
-145	207	-95	-165	31
-145	211	-92	-170	31
-146	214	-89	-174	31
-146	217	-86	-178	31
-146	221	-83	-183	31
-147	224	-80	-187	31
-147	227	-77	-191	31
-147	231	-74	-196	31
-148	234	-71	-200	31
-148	237	-68	-204	31
-149	241	-65	-209	31
-189	309	-89	-181	31
-190	993	46	16	31
-209	753	145	211	31
-251	-47	87	300	31
-135	-422	-65	33	31
161	-291	-108	-312	31
261	-188	-47	-486	31
185	-844	-69	-329	31
160	-824	-76	227	31
25	-262	-47	162	31
-188	138	-18	-246	31
-352	98	57	-2	31
-378	-827	-36	170	31
-94	-1606	-231	226	31
287	-1822	-301	29	31
396	-912	-64	-305	31
326	347	264	-191	31
143	1008	280	-161	31
-141	1221	214	-133	31
-160	371	82	65	31
60	-695	21	136	31
216	-770	27	117	31
224	99	2	41	31
119	282	49	41	31
55	295	-32	131	31
37	463	-77	41	31
40	262	-69	-17	31
63	373	-42	1	31
43	158	1	4	31
-18	52	77	65	31
-70	130	152	67	31
-136	100	113	52	31
-146	107	138	61	31
-115	48	-11	33	31
-89	108	-178	-11	31
24	114	-211	-126	31
115	229	-101	-354	31
127	251	282	-311	31
47	196	436	-98	31
-56	221	251	178	31
-156	332	-129	465	31
-303	507	-582	400	31
-330	323	-638	341	31
-180	-133	-90	149	31
79	-427	113	-132	31
164	197	-123	-79	31
19	1034	-107	24	31
-90	919	-73	-275	31
-62	229	28	-323	31
88	-855	25	185	31
118	-1448	13	51	31
103	-938	202	-189	31
49	-302	260	-157	31
-141	-60	243	50	31
-129	-95	157	187	31
-37	-434	-85	69	31
-13	-579	-146	102	31
127	-513	2	-155	31
274	-416	159	-327	31
283	211	36	-210	31
155	689	-191	-92	31
32	752	-41	-76	31
34	466	69	-10	31
66	-161	115	84	31
-24	-474	141	68	31
-175	-403	63	45	31
-214	-394	-63	12	31
-170	-499	-201	37	31
-77	-219	-252	70	31
-54	-75	-211	11	31
-27	126	146	-124	31
-12	390	369	42	31
-80	125	194	155	31
70	-9	55	-5	31
195	-74	-1	-55	31
182	395	-12	-145	31
-34	876	52	-74	31
-276	437	-6	121	31
-170	211	-217	137	31
-170	211	-217	137	31
-166	211	-216	138	31
-162	211	-214	140	31
-157	212	-212	142	31
-153	212	-210	144	31
-149	213	-208	146	31
-144	213	-206	148	31
-140	214	-204	150	31
-136	214	-202	152	31
-131	215	-200	153	31
-127	215	-198	155	31
-122	216	-196	157	31
-118	216	-194	159	31
-114	216	-192	161	31
-109	217	-190	163	31
-105	217	-188	165	31
-101	218	-186	167	31
-96	218	-184	169	31
-92	219	-182	170	31
-87	219	-180	172	31
-83	220	-178	174	31
-79	220	-176	176	31
-74	221	-174	178	31
-70	221	-172	180	31
-66	221	-170	182	31
-61	222	-168	184	31
-57	222	-166	186	31
-52	223	-164	187	31
-48	223	-162	189	31
-44	224	-160	191	31
-39	224	-158	193	31
-35	225	-156	195	31
-31	225	-154	197	31
-26	226	-152	199	31
-22	226	-150	201	31
-17	227	-148	203	31
-13	227	-147	204	31
-9	227	-145	206	31
-4	228	-143	208	31
0	228	-141	210	31
4	229	-139	212	31
9	229	-137	214	31
13	230	-135	216	31
17	230	-133	218	31
22	231	-131	219	31
26	231	-129	221	31
31	232	-127	223	31
35	232	-125	225	31
39	232	-123	227	31
44	233	-121	229	31
48	233	-119	231	31
52	234	-117	233	31
57	234	-115	235	31
61	235	-113	236	31
66	235	-111	238	31
70	236	-109	240	31
74	236	-107	242	31
79	237	-105	244	31
83	237	-103	246	31
87	237	-101	248	31
92	238	-99	250	31
96	238	-97	252	31
101	239	-95	253	31
105	239	-93	255	31
109	240	-91	257	31
114	240	-89	259	31
118	241	-87	261	31
122	241	-85	263	31
127	242	-83	265	31
131	242	-81	267	31
136	243	-79	269	31
29	262	-135	-293	31
-50	120	32	-363	31
-54	-40	168	-532	31
-55	-232	110	-743	31
-98	-298	-22	67	31
7	-198	-102	362	31
80	-199	-22	78	31
34	-240	-105	108	31
41	-95	-149	209	31
-38	59	-107	454	31
-107	29	-236	398	31
-89	-96	-282	378	31
-74	-62	-309	332	31
-21	436	-72	42	31
-42	841	164	-154	31
-119	456	191	-42	31
-108	-317	196	-212	31
13	-640	3	-245	31
160	-487	-77	456	31
230	-386	-4	186	31
199	-55	51	-259	31
129	176	27	-196	31
47	137	-118	-156	31
-21	193	-190	96	31
-19	85	-47	-156	31
-52	30	119	35	31
-77	3	104	355	31
-34	114	152	261	31
-7	315	90	17	31
-12	335	-84	-116	31
-70	193	-112	214	31
-50	-163	-126	79	31
46	-323	-56	-177	31
2	-235	-35	-297	31
-5	-193	-27	-166	31
34	-72	29	-151	31
-97	47	-6	-49	31
-113	52	12	269	31
-42	116	79	-233	31
11	108	112	-420	31
98	65	192	-110	31
95	44	222	77	31
60	65	55	242	31
-6	202	-50	174	31
-72	479	-2	89	31
-46	859	-33	56	31
-12	742	-134	-78	31
-8	150	-146	-250	31
108	-674	-51	-207	31
180	-964	61	-72	31
101	-548	123	-46	31
34	-444	193	148	31
-98	-157	68	326	31
-114	-42	-205	329	31
-148	-88	-184	334	31
-264	24	-50	142	31
-103	-259	72	-127	31
75	-320	189	-339	31
70	-226	143	-574	31
70	-159	112	-228	31
147	-109	114	356	31
112	-1	12	543	31
-6	173	-149	351	31
-46	242	-229	34	31
-50	399	-214	3	31
-102	459	-112	70	31
-150	231	-17	-72	31
-135	-193	-91	-201	31
-46	-417	-163	-6	31
41	-205	-32	-107	31
51	72	140	-173	31
72	120	115	-128	31
47	301	198	-199	31
22	596	174	68	31
7	606	-34	180	31
52	237	-75	218	31
128	-356	-165	165	31
120	-593	-179	19	31
87	-517	-76	-190	31
16	-375	17	-519	31
-42	-203	125	-426	31
-39	-79	169	-49	31
-14	58	100	74	31
-24	50	37	32	31
-57	14	-9	42	31
-86	-13	-62	-28	31
-59	6	-74	-12	31
11	91	-27	127	31
74	105	-21	219	31
131	165	-55	55	31
36	203	34	-59	31
-52	244	76	176	31
-44	239	29	256	31
-41	94	-59	37	31
-9	-59	-133	-282	31
-48	-151	28	-247	31
-27	-120	176	116	31
9	-49	77	500	31
-39	21	-38	608	31
-29	75	-214	226	31
22	154	-207	38	31
130	207	21	-86	31
82	119	-132	-144	31
-83	31	-166	-269	31
-49	-115	135	-519	31
-21	-275	287	-421	31
-28	-300	153	-307	31
-39	-237	-31	92	31
-46	-139	22	231	31
-36	-75	64	50	31
-64	42	64	-197	31
-57	159	31	-113	31
-55	209	9	188	31
32	287	-19	-22	31
94	301	-31	95	31
79	196	76	153	31
37	11	85	-5	31
-36	-138	15	-165	31
-17	-173	-36	-7	31
-17	-173	-36	-7	31
-17	-169	-36	-6	31
-18	-165	-37	-4	31
-19	-160	-38	-2	31
-20	-156	-39	-1	31
-21	-151	-40	1	31
-21	-147	-41	3	31
-22	-142	-42	4	31
-23	-138	-43	6	31
-24	-133	-43	8	31
-25	-129	-44	9	31
-25	-124	-45	11	31
-26	-120	-46	13	31
-27	-115	-47	14	31
-28	-111	-48	16	31
-29	-106	-49	18	31
-30	-102	-50	19	31
-30	-97	-51	21	31
-31	-93	-51	23	31
-32	-88	-52	24	31
-33	-84	-53	26	31
-34	-79	-54	28	31
-34	-75	-55	30	31
-35	-70	-56	31	31
-36	-66	-57	33	31
-37	-61	-58	35	31
-38	-57	-58	36	31
-39	-52	-59	38	31
-39	-48	-60	40	31
-40	-43	-61	41	31
-41	-39	-62	43	31
-42	-35	-63	45	31
-43	-30	-64	46	31
-43	-26	-65	48	31
-44	-21	-66	50	31
-45	-17	-66	51	31
-46	-12	-67	53	31
-47	-8	-68	55	31
-48	-3	-69	56	31
-48	1	-70	58	31
-49	6	-71	60	31
-50	10	-72	62	31
-51	15	-73	63	31
-52	19	-73	65	31
-52	24	-74	67	31
-53	28	-75	68	31
-54	33	-76	70	31
-55	37	-77	72	31
-56	42	-78	73	31
-57	46	-79	75	31
-57	51	-80	77	31
-58	55	-81	78	31
-59	60	-81	80	31
-60	64	-82	82	31
-61	69	-83	83	31
-61	73	-84	85	31
-62	78	-85	87	31
-63	82	-86	88	31
-64	87	-87	90	31
-65	91	-88	92	31
-66	96	-89	94	31
24	59	-15	-29	31
47	-45	94	-85	31
89	-19	81	9	31
173	68	20	40	31
117	75	-12	100	31
26	59	32	165	31
19	88	168	178	31
-19	107	132	-36	31
-42	152	-107	-218	31
-34	150	-229	-95	31
-62	133	-174	-85	31
-28	193	30	95	31
102	222	232	313	31
146	209	112	294	31
59	222	-34	262	31
-15	123	-102	181	31
-141	-160	-184	-59	31
-272	-194	-113	-272	31
-304	107	-64	-113	31
-355	257	-78	203	31
-171	-37	-34	283	31
136	-573	38	189	31
266	-877	65	-17	31
372	-760	26	-295	31
358	-371	-2	-368	31
206	-148	-48	-362	31
34	-75	31	-511	31
8	64	190	-582	31
-19	105	163	-253	31
-95	98	-22	221	31
-71	59	-174	617	31
-67	87	-155	780	31
1	144	-56	425	31
-27	108	40	193	31
-78	106	87	-36	31
-19	108	93	-517	31
32	98	49	-513	31
60	64	50	-130	31
-1	72	203	-249	31
-21	89	145	-460	31
-19	84	4	-262	31
-17	128	22	-255	31
-21	125	4	-125	31
-51	83	82	188	31
-37	53	108	451	31
-33	37	8	646	31
-34	31	-27	506	31
-17	31	-63	316	31
19	17	-176	262	31
9	9	-172	52	31
-92	57	-104	-225	31
-108	135	-70	-439	31
-34	156	3	-544	31
30	71	41	-237	31
118	-57	29	220	31
120	-203	12	219	31
37	-231	85	84	31
31	-137	150	-136	31
41	-118	44	-420	31
-17	-109	-224	-11	31
-1	-47	-291	256	31
31	34	-156	383	31
21	107	-49	388	31
46	156	49	-197	31
-17	199	-12	-363	31
-99	163	-13	-150	31
-89	27	37	85	31
-49	-118	55	301	31
-43	-188	189	420	31
12	-216	280	350	31
59	-206	171	183	31
-29	-138	-91	75	31
-19	-79	-223	-47	31
24	-32	-188	-290	31
-28	48	-50	-300	31
-21	149	98	-1	31
26	178	44	63	31
41	134	-17	-181	31
53	87	-8	-241	31
68	118	-22	-72	31
33	123	-3	-40	31
-60	-18	-7	4	31
-155	-135	32	76	31
-159	-219	65	42	31
-79	-259	42	-220	31
-4	-199	19	-380	31
-10	-107	-115	115	31
-13	-51	-236	309	31
65	-48	-57	-219	31
71	-4	160	-203	31
37	-5	144	155	31
18	16	73	-63	31
-20	139	-9	-358	31
-67	254	-38	60	31
-56	234	-2	335	31
11	44	14	39	31
8	-77	17	4	31
84	-149	-3	160	31
167	-153	-41	187	31
109	-34	-29	47	31
52	31	3	80	31
-1	42	-7	39	31
-30	31	22	-66	31
-31	22	43	-70	31
4	39	29	9	31
14	99	6	70	31
-58	181	-19	-8	31
-80	191	-41	31	31
-34	122	-49	54	31
19	92	-112	57	31
23	124	-184	-84	31
57	235	-39	-158	31
71	189	114	-101	31
15	-175	146	67	31
-4	-372	98	300	31
-72	-329	-114	102	31
-79	-233	-187	-48	31
-14	-67	-27	79	31
-47	-17	92	199	31
-54	-36	156	160	31
-95	-36	228	-288	31
-67	-43	218	-474	31
59	-100	135	-124	31
68	-148	45	40	31
104	-62	-35	-18	31
144	-7	-112	-16	31
103	67	-169	8	31
35	146	-187	71	31
-33	105	-230	45	31
-33	105	-230	45	31
-31	95	-226	45	31
-29	85	-222	45	31
-27	75	-217	45	31
-24	65	-213	45	31
-22	55	-209	45	31
-20	45	-204	45	31
-17	34	-200	45	31
-15	24	-196	45	31
-13	14	-191	45	31
-10	4	-187	45	31
-8	-6	-183	45	31
-6	-16	-178	46	31
-4	-26	-174	46	31
-1	-37	-170	46	31
1	-47	-165	46	31
3	-57	-161	46	31
6	-67	-157	46	31
8	-77	-152	46	31
10	-87	-148	46	31
13	-98	-143	46	31
15	-108	-139	46	31
17	-118	-135	46	31
19	-128	-130	46	31
22	-138	-126	47	31
24	-148	-122	47	31
26	-158	-117	47	31
29	-169	-113	47	31
31	-179	-109	47	31
33	-189	-104	47	31
36	-199	-100	47	31
38	-209	-96	47	31
40	-219	-91	47	31
42	-229	-87	47	31
45	-240	-83	47	31
47	-250	-78	47	31
49	-260	-74	48	31
52	-270	-70	48	31
54	-280	-65	48	31
56	-290	-61	48	31
59	-301	-56	48	31
61	-311	-52	48	31
63	-321	-48	48	31
65	-331	-43	48	31
68	-341	-39	48	31
70	-351	-35	48	31
72	-361	-30	48	31
75	-372	-26	48	31
77	-382	-22	49	31
79	-392	-17	49	31
82	-402	-13	49	31
84	-412	-9	49	31
86	-422	-4	49	31
88	-432	0	49	31
91	-443	4	49	31
93	-453	9	49	31
95	-463	13	49	31
98	-473	17	49	31
100	-483	22	49	31
102	-493	26	49	31
105	-504	31	50	31
302	-368	95	255	31
384	-112	92	346	31
289	-42	-10	277	31
149	60	-234	66	31
41	123	-276	-162	31
-53	56	-125	-216	31
-70	15	-26	-57	31
-54	-13	110	240	31
-25	17	190	2	31
6	0	173	-362	31
9	-33	80	-250	31
9	-42	-66	-8	31
7	-42	-26	165	31
-36	3	-29	145	31
-47	4	-78	81	31
-55	35	-67	193	31
-127	62	-107	85	31
-103	143	-55	-103	31
-106	385	2	-46	31
-155	514	25	-117	31
-75	405	76	-205	31
32	-1	87	-105	31
55	-626	59	-112	31
77	-763	26	16	31
141	-376	-50	246	31
79	-182	-110	248	31
8	-112	-65	189	31
-22	2	-57	160	31
-40	41	-47	37	31
1	77	22	-170	31
4	68	-16	-208	31
39	38	-89	34	31
40	23	-140	401	31
5	32	-142	437	31
-15	84	58	406	31
-46	181	263	171	31
-122	316	239	-221	31
-191	359	179	-68	31
-170	331	70	-425	31
-179	144	-32	-663	31
-77	-141	-2	-284	31
259	-311	45	-277	31
429	-404	84	-275	31
233	-241	117	-406	31
83	-39	181	-343	31
-3	-44	141	6	31
-130	24	-54	512	31
-68	152	-245	706	31
4	249	-207	-162	31
-9	160	-90	-613	31
-31	-93	-11	121	31
-42	-257	39	488	31
-141	-170	-59	298	31
-159	-12	-120	163	31
-45	80	-84	-108	31
-50	268	-46	-208	31
-50	241	-59	116	31
74	-43	-57	517	31
181	-332	-63	464	31
108	-352	-43	362	31
-18	-46	28	354	31
-120	54	50	140	31
-82	20	108	-15	31
27	29	154	-637	31
91	-52	96	-982	31
70	-98	-42	-760	31
-85	-64	-50	-405	31
-44	30	21	44	31
85	115	39	-368	31
102	136	115	-322	31
89	123	135	130	31
85	59	71	-34	31
49	11	-14	34	31
14	13	-78	252	31
49	45	-103	310	31
34	33	-45	240	31
25	-9	-32	337	31
-16	-72	-44	327	31
-59	-120	-11	111	31
-85	-7	39	-44	31
-172	80	136	-131	31
-132	47	141	5	31
-93	17	65	-11	31
-84	114	-94	-117	31
25	277	-231	105	31
120	257	-223	229	31
191	67	-107	122	31
107	-277	52	103	31
7	-459	113	186	31
60	-277	98	305	31
39	-120	-56	265	31
59	-37	-291	110	31
6	42	-304	85	31
-64	93	-194	263	31
-18	133	96	-65	31
-145	135	342	-378	31
-151	70	107	61	31
-42	-26	55	-158	31
31	-44	149	-474	31
95	-112	51	-504	31
4	-138	32	-441	31
-79	-20	66	-125	31
-78	-14	275	-117	31
-36	2	400	-55	31
-34	74	324	245	31
-116	157	255	469	31
-168	195	21	627	31
-178	76	-359	539	31
-77	-70	-698	406	31
126	-142	-856	352	31
147	92	-537	-320	31
-155	264	-137	-587	31
-459	62	6	-123	31
-395	-189	155	-229	31
-224	-386	223	-904	31
209	-279	275	-959	31
737	-38	283	-391	31
662	48	371	-199	31
394	82	503	-25	31
394	82	503	-25	31
391	82	494	-25	31
388	81	485	-24	31
384	80	475	-24	31
381	79	466	-23	31
378	78	457	-23	31
374	77	447	-22	31
371	76	438	-22	31
367	75	428	-21	31
364	74	419	-21	31
361	73	410	-20	31
357	72	400	-20	31
354	71	391	-19	31
351	70	382	-18	31
347	69	372	-18	31
344	68	363	-17	31
340	67	353	-17	31
337	66	344	-16	31
334	66	335	-16	31
330	65	325	-15	31
327	64	316	-15	31
323	63	307	-14	31
320	62	297	-14	31
317	61	288	-13	31
313	60	278	-12	31
310	59	269	-12	31
307	58	260	-11	31
303	57	250	-11	31
300	56	241	-10	31
296	55	232	-10	31
293	54	222	-9	31
290	53	213	-9	31
286	52	203	-8	31
283	51	194	-8	31
279	50	185	-7	31
276	50	175	-7	31
273	49	166	-6	31
269	48	157	-5	31
266	47	147	-5	31
263	46	138	-4	31
259	45	128	-4	31
256	44	119	-3	31
252	43	110	-3	31
249	42	100	-2	31
246	41	91	-2	31
242	40	82	-1	31
239	39	72	-1	31
235	38	63	0	31
232	37	53	1	31
229	36	44	1	31
225	35	35	2	31
222	34	25	2	31
219	34	16	3	31
215	33	7	3	31
212	32	-3	4	31
208	31	-12	4	31
205	30	-22	5	31
202	29	-31	5	31
198	28	-40	6	31
195	27	-50	6	31
191	26	-59	7	31
188	25	-68	8	31
185	24	-78	8	31
181	23	-87	9	31
178	22	-97	9	31
175	21	-106	10	31
171	20	-115	10	31
168	19	-125	11	31
164	18	-134	11	31
161	18	-143	12	31
158	17	-153	12	31
154	16	-162	13	31
151	15	-172	14	31
148	14	-181	14	31
144	13	-190	15	31
141	12	-200	15	31
137	11	-209	16	31
134	10	-218	16	31
131	9	-228	17	31
127	8	-237	17	31
124	7	-247	18	31
120	6	-256	18	31
117	5	-265	19	31
114	4	-275	19	31
110	3	-284	20	31
107	2	-293	21	31
104	2	-303	21	31
100	1	-312	22	31
97	0	-322	22	31
93	-1	-331	23	31
90	-2	-340	23	31
87	-3	-350	24	31
83	-4	-359	24	31
80	-5	-368	25	31
76	-6	-378	25	31
73	-7	-387	26	31
70	-8	-397	27	31
66	-9	-406	27	31
63	-10	-415	28	31
60	-11	-425	28	31
56	-12	-434	29	31
53	-13	-443	29	31
49	-14	-453	30	31
46	-14	-462	30	31
43	-15	-472	31	31
39	-16	-481	31	31
36	-17	-490	32	31
32	-18	-500	32	31
29	-19	-509	33	31
26	-20	-518	34	31
22	-21	-528	34	31
19	-22	-537	35	31
16	-23	-547	35	31
12	-24	-556	36	31
9	-25	-565	36	31
5	-26	-575	37	31
2	-27	-584	37	31
-1	-28	-593	38	31
-5	-29	-603	38	31
-8	-30	-612	39	31
-12	-31	-622	40	31
-48	34	-58	131	31
-67	113	34	-107	31
-115	71	-54	-247	31
-135	116	55	-487	31
-124	171	108	-93	31
-113	294	334	694	31
-152	166	393	1030	31
-47	-6	342	763	31
231	20	355	131	31
319	-136	309	142	31
36	-100	269	-163	31
-110	-41	268	-638	31
4	-102	-212	-464	31
34	-53	-381	-84	31
78	16	211	96	31
133	41	374	-13	31
53	-114	186	20	31
-29	-214	130	-9	31
90	-201	233	4	31
2	-61	381	151	31
-57	64	277	21	31
49	75	-516	-34	31
-106	150	-1127	229	31
-85	169	-723	74	31
-2	208	-232	48	31
13	92	6	180	31
17	-97	57	-173	31
-88	-135	-82	-98	31
-74	-154	-176	155	31
-57	-80	-119	180	31
-44	2	94	168	31
-7	31	220	-306	31
-19	34	274	-742	31
-3	55	389	-338	31
-5	41	501	-89	31
19	47	532	47	31
26	181	55	251	31
-23	280	-421	129	31
-87	246	-362	-49	31
-127	173	-335	-319	31
-90	155	-171	-106	31
-43	97	17	-199	31
27	-98	185	-327	31
106	-461	499	151	31
151	-480	391	213	31
117	-82	335	265	31
-2	6	411	368	31
-67	-85	126	344	31
-85	-147	-89	664	31
-97	-140	-232	431	31
9	-30	-547	-31	31
19	14	-675	-87	31
-72	33	-549	-1049	31
54	-4	-223	-943	31
118	21	194	261	31
32	19	261	130	31
26	14	112	67	31
9	63	-13	48	31
8	80	-143	-127	31
4	174	-266	-155	31
-57	211	-53	44	31
-89	188	206	288	31
-102	146	572	113	31
-105	27	387	51	31
-78	-52	-463	-102	31
-55	-107	-659	39	31
-26	-251	-454	171	31
42	-239	264	257	31
79	-96	327	365	31
107	-49	-46	122	31
146	43	-62	-224	31
60	184	-297	-727	31
-37	393	-187	-808	31
-27	439	-21	-183	31
-24	143	175	590	31
-14	-268	368	537	31
-19	-472	414	-165	31
-43	-229	269	-173	31
-90	-83	109	160	31
-105	-36	26	-79	31
21	153	65	-8	31
245	26	144	117	31
189	-124	-1	40	31
-43	-254	5	80	31
-12	-234	126	-1	31
2	67	364	7	31
-23	54	298	-41	31
-70	-36	-116	-2	31
-82	-62	-355	67	31
86	-5	59	216	31
223	99	1033	383	31
18	115	1203	252	31
-151	387	176	71	31
-79	553	-1127	-81	31
-222	424	-1719	-409	31
21	222	-1645	-127	31
262	-131	-539	332	31
142	-442	118	199	31
8	-546	-355	36	31
-171	-599	-256	-543	31
7	-361	-133	-667	31
71	-28	262	-203	31
71	-27	284	-194	31
188	103	217	-170	31
64	108	338	10	31
-7	67	153	36	31
-18	123	228	77	31
-9	56	130	349	31
21	190	247	319	31
-62	361	242	93	31
-155	589	223	64	31
-162	604	493	67	31
-90	189	888	136	31
12	-328	746	97	31
77	-780	-193	54	31
118	-730	-792	45	31
87	-313	-1066	-62	31
-2	-102	-625	-207	31
-59	-14	-65	-127	31
-68	59	-73	-35	31
-68	93	85	-105	31
-36	199	158	-16	31
13	249	203	117	31
-1	157	244	198	31
-21	-22	209	-2	31
-24	-171	67	39	31
-24	-141	-221	266	31
-7	-77	-108	22	31
-24	-29	16	-79	31
-27	45	-115	-168	31
44	44	-187	-242	31
47	36	-19	-198	31
-15	49	378	-108	31
-17	49	501	-47	31
-19	48	421	34	31
-19	24	103	329	31
-33	14	-261	170	31
-34	27	-277	-79	31
-20	42	-252	-94	31
-20	72	-68	-20	31
21	78	-259	15	31
8	108	-332	-51	31
-27	273	-194	-107	31
-46	383	-310	-221	31
-53	203	-55	-304	31
-7	-169	-46	-315	31
44	-471	239	-110	31
82	-363	499	374	31
65	-92	470	437	31
31	-82	355	1	31
6	-46	-11	161	31
-9	6	-54	322	31
-24	5	-229	190	31
-49	110	-301	109	31
-58	188	-134	-68	31
-46	184	53	-61	31
-2	54	221	67	31
55	-130	308	43	31
83	-211	89	-74	31
83	-211	89	-74	31
83	-209	89	-73	31
82	-206	88	-72	31
81	-203	87	-71	31
80	-200	86	-70	31
80	-197	85	-69	31
79	-194	84	-67	31
78	-192	83	-66	31
77	-189	82	-65	31
77	-186	81	-64	31
76	-183	80	-63	31
75	-180	79	-61	31
74	-177	78	-60	31
74	-175	77	-59	31
73	-172	76	-58	31
72	-169	75	-57	31
71	-166	74	-56	31
71	-163	73	-54	31
70	-160	73	-53	31
69	-157	72	-52	31
68	-155	71	-51	31
68	-152	70	-50	31
67	-149	69	-48	31
66	-146	68	-47	31
65	-143	67	-46	31
65	-140	66	-45	31
64	-138	65	-44	31
63	-135	64	-42	31
62	-132	63	-41	31
62	-129	62	-40	31
61	-126	61	-39	31
60	-123	60	-38	31
59	-121	59	-37	31
59	-118	58	-35	31
58	-115	57	-34	31
57	-112	56	-33	31
56	-109	56	-32	31
55	-106	55	-31	31
55	-103	54	-29	31
54	-101	53	-28	31
53	-98	52	-27	31
52	-95	51	-26	31
52	-92	50	-25	31
51	-89	49	-24	31
50	-86	48	-22	31
49	-84	47	-21	31
49	-81	46	-20	31
48	-78	45	-19	31
47	-75	44	-18	31
46	-72	43	-16	31
46	-69	42	-15	31
45	-67	41	-14	31
44	-64	40	-13	31
43	-61	40	-12	31
43	-58	39	-10	31
42	-55	38	-9	31
41	-52	37	-8	31
40	-49	36	-7	31
40	-47	35	-6	31
39	-44	34	-5	31
38	-41	33	-3	31
37	-38	32	-2	31
37	-35	31	-1	31
36	-32	30	0	31
35	-30	29	1	31
34	-27	28	3	31
34	-24	27	4	31
33	-21	26	5	31
32	-18	25	6	31
31	-15	24	7	31
30	-12	23	9	31
93	82	-26	206	31
147	102	-89	100	31
120	-49	-72	-29	31
-46	-152	-100	-96	31
68	-145	2	-167	31
310	24	89	-112	31
277	169	76	-84	31
101	277	17	270	31
75	302	-143	468	31
-113	79	-234	418	31
-198	-186	-122	-228	31
10	-393	44	-762	31
59	-216	122	-187	31
107	44	261	103	31
-7	70	200	-53	31
-72	98	111	-50	31
-62	-33	19	9	31
-113	-101	-151	-19	31
-50	2	-145	1	31
-46	87	-120	10	31
1	62	-34	125	31
-29	8	22	158	31
-84	7	81	53	31
-88	-28	101	42	31
-103	9	47	100	31
-20	25	5	227	31
32	-6	-66	33	31
-18	-12	6	-124	31
-46	2	50	233	31
-46	2	50	233	31
-45	1	51	226	31
-43	0	52	218	31
-42	-1	53	210	31
-40	-2	54	202	31
-39	-4	55	194	31
-37	-5	56	186	31
-36	-6	57	178	31
-34	-7	58	170	31
-33	-9	59	162	31
-31	-10	60	154	31
-29	-11	61	146	31
-28	-12	62	138	31
-26	-14	63	130	31
-25	-15	64	122	31
-23	-16	65	114	31
-22	-17	66	106	31
-20	-18	67	98	31
-19	-20	68	90	31
-17	-21	69	82	31
-15	-22	71	74	31
-14	-23	72	67	31
-12	-25	73	59	31
-11	-26	74	51	31
-9	-27	75	43	31
-8	-28	76	35	31
-6	-30	77	27	31
-5	-31	78	19	31
-3	-32	79	11	31
-2	-33	80	3	31
0	-35	81	-5	31
2	-36	82	-13	31
3	-37	83	-21	31
5	-38	84	-29	31
6	-39	85	-37	31
8	-41	86	-45	31
9	-42	87	-53	31
11	-43	88	-61	31
12	-44	89	-69	31
14	-46	90	-77	31
16	-47	92	-85	31
17	-48	93	-92	31
19	-49	94	-100	31
20	-51	95	-108	31
22	-52	96	-116	31
23	-53	97	-124	31
25	-54	98	-132	31
26	-55	99	-140	31
28	-57	100	-148	31
29	-58	101	-156	31
31	-59	102	-164	31
33	-60	103	-172	31
34	-62	104	-180	31
36	-63	105	-188	31
37	-64	106	-196	31
39	-65	107	-204	31
40	-67	108	-212	31
42	-68	109	-220	31
43	-69	110	-228	31
45	-70	111	-236	31
47	-72	113	-244	31
11	-70	87	77	31
-221	8	45	23	31
-177	91	-55	201	31
-125	-15	-68	20	31
47	-53	-105	-75	31
368	16	-61	-152	31
363	10	126	-127	31
315	11	315	245	31
229	-96	379	348	31
100	-203	224	160	31
75	-82	-13	-12	31
-34	-27	-335	44	31
-49	-51	-403	-26	31
-31	17	-224	-24	31
-52	37	-133	-55	31
-55	103	-7	-24	31
-114	186	89	113	31
-111	151	113	231	31
-108	78	77	193	31
-27	-81	36	59	31
86	-216	29	-65	31
57	-173	-1	-395	31
-102	-74	49	-167	31
-140	17	-81	36	31
-32	55	-199	-41	31
-56	3	-166	150	31
33	-49	-137	-133	31
77	-55	47	-286	31
-41	44	123	7	31
-62	83	32	-130	31
-65	43	-26	-252	31
7	75	-28	-35	31
32	126	41	135	31
-113	234	74	388	31
-151	198	51	181	31
-112	2	5	-14	31
-11	-241	-22	77	31
227	-375	41	-46	31
255	-194	80	16	31
73	-44	85	-14	31
21	-4	49	16	31
22	19	52	39	31
-38	41	6	-16	31
-34	117	-95	-32	31
-53	177	-57	-63	31
-115	216	-35	-25	31
-115	136	-2	-41	31
21	-49	31	-42	31
50	-204	-30	-78	31
-54	-173	-69	-29	31
32	36	-70	86	31
-36	65	61	195	31
-168	-66	267	85	31
-98	-108	264	-118	31
-12	-76	87	-27	31
68	-82	-102	-29	31
181	-98	-171	-91	31
240	12	-140	-75	31
76	22	-64	-89	31
21	12	145	7	31
7	52	278	61	31
-74	14	290	163	31
-72	31	145	226	31
-72	19	-194	-34	31
30	24	-342	-155	31
53	40	-261	-54	31
43	24	-211	-126	31
65	38	-183	-236	31
25	45	-92	-220	31
13	62	-25	8	31
-54	56	45	382	31
-52	10	33	494	31
-8	-32	-80	109	31
-55	-5	-80	-228	31
-69	17	-63	-178	31
-98	-6	1	-1	31
-88	-15	73	4	31
-34	-9	44	-108	31
37	4	97	22	31
87	-3	139	2	31
45	-9	87	52	31
14	-7	32	98	31
-11	36	-102	29	31
1	44	-178	34	31
-3	-2	-42	-56	31
-12	-34	103	-63	31
3	-60	131	-129	31
-7	-9	149	-63	31
15	53	136	-17	31
0	92	65	-61	31
-43	125	53	24	31
-84	77	32	135	31
-82	-17	-22	286	31
-34	-127	-46	136	31
37	-123	-85	-122	31
114	-26	-86	-123	31
80	-28	-63	-130	31
9	-46	-95	-165	31
-1	-68	-27	-66	31
-78	-85	40	97	31
-108	-26	62	74	31
60	0	111	49	31
75	40	50	35	31
-45	77	-20	18	31
-39	90	-21	50	31
17	113	86	17	31
142	54	257	16	31
224	-79	314	-22	31
151	-111	171	42	31
45	107	-102	84	31
-51	244	-398	-46	31
-159	259	-440	-183	31
-240	224	-242	-118	31
-217	-155	-129	-59	31
-136	-439	-19	-181	31
-19	-303	97	-168	31
176	-59	105	100	31
274	59	-17	380	31
49	74	-111	163	31
-98	28	16	32	31
-11	-136	101	26	31
-83	-206	6	-100	31
28	-166	-80	-47	31
161	-160	-63	-66	31
80	-8	54	72	31
138	77	133	137	31
52	27	153	146	31
-49	108	96	47	31
-51	156	-11	-168	31
-150	268	-62	-21	31
-155	424	-53	16	31
-181	398	-9	25	31
-139	105	-2	54	31
87	-318	32	23	31
180	-580	54	71	31
151	-437	69	-53	31
129	-12	66	-69	31
50	-1	12	-3	31
17	-6	-5	-81	31
-55	151	-95	-163	31
-139	65	-145	-135	31
-135	66	-27	-39	31
-167	-14	68	88	31
-98	-82	113	203	31
27	57	110	151	31
-24	292	-26	136	31
-62	475	-87	44	31
-7	504	-59	-196	31
12	439	59	-423	31
64	60	121	-425	31
92	-507	-109	-27	31
76	-754	-145	106	31
155	-613	-37	96	31
195	-495	4	29	31
98	-253	-95	-49	31
19	-8	-185	14	31
-26	-25	-10	112	31
-46	55	15	346	31
-46	64	57	179	31
-58	64	63	33	31
-63	121	14	54	31
-53	118	69	-16	31
-39	140	49	-52	31
-54	85	34	-78	31
-57	31	31	-24	31
-51	64	60	-23	31
-63	182	51	3	31
-52	188	-16	-14	31
-33	75	-163	-148	31
11	-7	-202	-263	31
112	-56	-98	-187	31
84	-32	-1	186	31
-15	-74	71	507	31
21	-105	84	420	31
16	-8	187	-24	31
-3	34	180	-238	31
-5	22	95	146	31
-26	38	29	237	31
-34	29	-38	10	31
-62	19	-70	-95	31
-57	21	-142	-171	31
-67	1	-115	-155	31
-42	19	-38	-302	31
-13	37	-17	-129	31
21	47	7	-15	31
92	43	47	-54	31
84	1	66	98	31
28	-20	51	64	31
-34	-11	6	113	31
-52	37	14	48	31
1	138	65	-105	31
55	216	124	-188	31
35	158	124	-82	31
26	-7	47	47	31
36	-221	84	-94	31
-26	-264	123	-170	31
-52	-118	-91	12	31
-72	-130	-418	206	31
-113	-99	-613	113	31
-69	-11	-418	75	31
82	-26	-14	80	31
186	15	119	257	31
78	-1	162	592	31
35	7	125	69	31
128	36	162	-497	31
44	12	215	-250	31
-22	20	100	-273	31
-16	10	113	-284	31
-57	14	17	-36	31
-42	-1	-90	40	31
-65	-14	-92	218	31
-48	-14	2	188	31
-24	-2	65	23	31
-39	37	-88	-17	31
7	32	-72	-9	31
19	2	53	14	31
-52	-26	173	11	31
-40	-29	274	18	31
62	5	184	-141	31
24	49	42	-139	31
-16	76	-73	-190	31
15	95	-31	-312	31
-20	69	-26	194	31
-36	-44	-159	588	31
-1	-94	-110	457	31
50	-82	-160	269	31
38	-37	-196	9	31
-37	16	-56	-309	31
-31	37	9	-331	31
-62	117	28	-107	31
-95	112	2	8	31
-43	55	-32	49	31
10	-51	-17	60	31
65	-171	19	16	31
58	-64	58	-86	31
83	53	120	-153	31
92	36	148	-50	31
32	-17	137	24	31
2	-25	39	-18	31
2	-25	39	-18	31
3	-29	39	-19	31
5	-33	39	-21	31
7	-37	39	-23	31
9	-41	39	-25	31
11	-45	38	-26	31
12	-50	38	-28	31
14	-54	38	-30	31
16	-58	38	-32	31
18	-62	38	-34	31
20	-66	37	-35	31
21	-70	37	-37	31
23	-75	37	-39	31
25	-79	37	-41	31
27	-83	37	-43	31
29	-87	36	-44	31
31	-91	36	-46	31
32	-95	36	-48	31
34	-100	36	-50	31
36	-104	36	-51	31
38	-108	35	-53	31
40	-112	35	-55	31
41	-116	35	-57	31
43	-120	35	-59	31
45	-125	35	-60	31
47	-129	34	-62	31
49	-133	34	-64	31
50	-137	34	-66	31
52	-141	34	-68	31
54	-145	34	-69	31
56	-150	33	-71	31
58	-154	33	-73	31
60	-158	33	-75	31
61	-162	33	-76	31
63	-166	33	-78	31
65	-171	32	-80	31
67	-175	32	-82	31
69	-179	32	-84	31
70	-183	32	-85	31
72	-187	32	-87	31
74	-191	31	-89	31
76	-196	31	-91	31
78	-200	31	-93	31
80	-204	31	-94	31
81	-208	31	-96	31
83	-212	30	-98	31
85	-216	30	-100	31
87	-221	30	-101	31
89	-225	30	-103	31
90	-229	30	-105	31
92	-233	29	-107	31
94	-237	29	-109	31
96	-241	29	-110	31
98	-246	29	-112	31
99	-250	29	-114	31
101	-254	28	-116	31
103	-258	28	-118	31
105	-262	28	-119	31
107	-266	28	-121	31
109	-271	28	-123	31
110	-275	27	-125	31
112	-279	27	-126	31
114	-283	27	-128	31
116	-287	27	-130	31
118	-291	27	-132	31
119	-296	26	-134	31
121	-300	26	-135	31
123	-304	26	-137	31
125	-308	26	-139	31
127	-312	26	-141	31
129	-317	25	-143	31
59	-43	-35	37	31
15	-24	-11	115	31
16	80	-109	155	31
0	-44	-136	135	31
-11	-80	-70	59	31
13	-44	-44	-4	31
31	60	65	-96	31
12	220	201	-220	31
-36	372	270	-277	31
-78	584	265	-274	31
-77	577	229	-133	31
-44	294	80	222	31
-24	-187	-59	495	31
63	-592	-78	320	31
165	-548	-118	111	31
134	-203	-272	160	31
57	-89	-325	59	31
-14	12	-270	-30	31
-80	282	-158	29	31
-95	385	119	-35	31
-27	184	263	-137	31
-48	-331	138	-119	31
-93	-780	5	-48	31
-6	-628	-41	39	31
12	-196	18	-36	31
-2	-147	119	-176	31
-42	-53	82	-51	31
-23	97	-47	-1	31
26	229	-124	30	31
-44	421	-122	64	31
-46	297	-98	5	31
-24	29	-37	47	31
18	-275	9	-38	31
89	-13	28	17	31
58	574	122	80	31
-31	658	148	18	31
-123	599	80	39	31
-107	257	82	-68	31
-19	-353	55	-170	31
81	-753	-27	-214	31
139	-692	-19	-115	31
130	-411	-38	19	31
34	-59	-76	195	31
-48	294	-10	272	31
-21	478	27	19	31
-48	659	50	-115	31
-26	431	63	-7	31
80	182	-44	180	31
186	-32	-65	105	31
174	-383	85	6	31
40	-223	206	9	31
-9	-296	196	-53	31
-49	-508	-38	46	31
-77	-346	-327	4	31
-98	-269	-311	-84	31
-185	-202	-165	-80	31
-175	-75	60	-52	31
-108	230	214	-71	31
-92	545	80	-88	31
-14	492	26	-5	31
95	-90	-75	-39	31
127	-666	-115	-201	31
131	-434	60	-240	31
132	-140	110	65	31
64	-74	100	208	31
1	93	49	63	31
-22	26	6	1	31
-31	54	-97	14	31
0	79	-150	137	31
0	79	-150	137	31
1	71	-148	136	31
2	62	-145	134	31
3	53	-143	133	31
5	44	-140	131	31
6	35	-138	130	31
7	26	-135	128	31
8	18	-133	127	31
10	9	-130	125	31
11	0	-128	124	31
12	-9	-125	122	31
14	-18	-123	121	31
15	-27	-120	119	31
16	-36	-118	118	31
17	-44	-115	116	31
19	-53	-113	115	31
20	-62	-110	113	31
21	-71	-108	112	31
23	-80	-105	110	31
24	-89	-103	109	31
25	-98	-100	107	31
26	-106	-98	106	31
28	-115	-95	104	31
29	-124	-93	103	31
30	-133	-90	101	31
32	-142	-88	100	31
33	-151	-85	98	31
34	-159	-83	97	31
35	-168	-80	95	31
37	-177	-78	94	31
38	-186	-75	92	31
39	-195	-73	90	31
41	-204	-70	89	31
42	-213	-68	87	31
43	-221	-65	86	31
44	-230	-63	84	31
46	-239	-60	83	31
47	-248	-58	81	31
48	-257	-55	80	31
50	-266	-53	78	31
51	-275	-50	77	31
52	-283	-48	75	31
53	-292	-45	74	31
55	-301	-43	72	31
56	-310	-40	71	31
57	-319	-38	69	31
59	-328	-35	68	31
60	-336	-33	66	31
61	-345	-30	65	31
62	-354	-28	63	31
64	-363	-25	62	31
65	-372	-23	60	31
66	-381	-20	59	31
68	-390	-18	57	31
69	-398	-15	56	31
70	-407	-13	54	31
71	-416	-10	53	31
73	-425	-8	51	31
74	-434	-5	50	31
75	-443	-3	48	31
77	-452	0	46	31
117	-161	58	-2	31
48	69	139	-151	31
-72	115	32	-127	31
-67	213	-89	-71	31
-57	190	-130	30	31
-106	168	97	94	31
-108	237	495	18	31
-46	295	318	-26	31
-35	571	-99	-34	31
-125	843	-412	14	31
-176	823	-415	19	31
-81	283	-28	-6	31
0	-365	5	-77	31
82	-487	-16	-67	31
179	-338	93	-54	31
137	-488	43	-116	31
88	-663	108	-110	31
75	-601	-79	-110	31
75	-662	-151	-83	31
133	-258	40	67	31
77	445	54	417	31
-21	516	-16	411	31
2	219	-110	112	31
65	-344	-76	91	31
119	-440	87	-197	31
70	-100	22	-252	31
-67	-233	-181	-77	31
-106	-160	-160	-45	31
-26	-65	-86	12	31
-29	-27	88	-160	31
-49	154	161	-72	31
-32	218	51	19	31
-39	497	9	102	31
14	672	-12	214	31
-4	585	-81	320	31
-117	499	-144	385	31
-168	563	-10	-109	31
-64	522	133	-468	31
-22	-2	190	-411	31
-22	-2	190	-411	31
-20	-4	188	-407	31
-18	-6	186	-402	31
-16	-8	184	-397	31
-14	-10	182	-393	31
-11	-12	180	-388	31
-9	-14	177	-383	31
-7	-16	175	-379	31
-5	-18	173	-374	31
-2	-20	171	-369	31
0	-22	169	-365	31
2	-24	167	-360	31
4	-26	164	-355	31
7	-28	162	-351	31
9	-30	160	-346	31
11	-32	158	-341	31
13	-34	156	-337	31
16	-36	154	-332	31
18	-38	151	-327	31
20	-40	149	-323	31
22	-42	147	-318	31
25	-44	145	-313	31
27	-46	143	-309	31
29	-48	141	-304	31
31	-50	138	-299	31
34	-52	136	-295	31
36	-54	134	-290	31
38	-56	132	-285	31
40	-58	130	-281	31
43	-60	128	-276	31
45	-62	125	-271	31
47	-64	123	-267	31
49	-66	121	-262	31
52	-68	119	-257	31
54	-70	117	-253	31
56	-72	114	-248	31
58	-74	112	-243	31
60	-76	110	-239	31
63	-78	108	-234	31
65	-80	106	-229	31
67	-82	104	-225	31
69	-84	101	-220	31
72	-86	99	-215	31
74	-88	97	-211	31
76	-90	95	-206	31
78	-92	93	-201	31
81	-94	91	-197	31
83	-96	88	-192	31
85	-98	86	-187	31
87	-100	84	-183	31
90	-102	82	-178	31
92	-104	80	-173	31
94	-106	78	-169	31
96	-108	75	-164	31
99	-110	73	-159	31
101	-112	71	-155	31
103	-114	69	-150	31
105	-116	67	-145	31
108	-118	65	-141	31
110	-120	62	-136	31
112	-122	60	-131	31
114	-124	58	-127	31
117	-126	56	-122	31
119	-128	54	-117	31
121	-130	52	-113	31
123	-132	49	-108	31
126	-134	47	-103	31
128	-136	45	-99	31
130	-138	43	-94	31
132	-140	41	-89	31
135	-143	38	-84	31
44	-213	-3	-28	31
-36	-241	-21	113	31
-40	-239	87	226	31
-67	-210	289	135	31
-140	-226	307	-31	31
-123	-155	97	-69	31
-46	-59	-227	1	31
-9	-73	-327	70	31
114	4	-138	107	31
177	-9	-242	-39	31
133	-27	-186	-286	31
61	15	82	-567	31
19	31	162	-493	31
18	60	203	-137	31
-19	44	119	-21	31
-16	66	22	142	31
-14	53	-55	80	31
7	48	-2	-16	31
18	50	65	68	31
-1	37	37	82	31
-12	51	13	127	31
-17	57	11	145	31
14	101	58	183	31
10	101	32	66	31
-8	79	-7	-180	31
-19	166	-59	-332	31
-89	419	-140	-220	31
-165	593	-188	-116	31
-123	369	-79	142	31
-37	-213	92	617	31
28	-721	52	533	31
148	-710	-17	67	31
168	-494	-95	-82	31
46	-388	-86	-181	31
70	-236	68	-356	31
110	-88	100	-103	31
26	-22	107	-14	31
-7	8	106	55	31
-16	21	60	57	31
-33	31	-15	-14	31
-57	27	-44	69	31
-53	66	-20	8	31
-22	166	-32	38	31
41	178	23	-50	31
57	166	117	-30	31
20	127	132	-37	31
24	46	6	-108	31
-32	-19	-100	41	31
-71	-87	-12	241	31
-59	-64	105	407	31
-70	-16	-55	593	31
-50	85	-183	442	31
-31	310	-16	-355	31
-28	439	5	-522	31
-16	313	21	-277	31
-2	-60	17	-306	31
-12	-431	-74	-317	31
15	-384	-1	-368	31
75	-155	73	-71	31
47	-97	69	69	31
-7	34	-6	9	31
-81	82	-44	74	31
-97	72	-62	90	31
-39	99	-75	7	31
6	-4	-21	22	31
64	23	54	66	31
72	19	37	65	31
57	-134	-22	37	31
-2	-312	-44	-100	31
-22	-243	-106	10	31
2	47	-140	62	31
4	85	-91	132	31
63	80	-14	110	31
126	-7	32	70	31
138	-78	118	188	31
59	-6	178	-5	31
-4	-10	118	-86	31
-4	52	98	-55	31
-21	79	125	-60	31
-75	57	94	-66	31
-95	7	51	-94	31
-40	-35	-31	-75	31
-34	-32	-201	-33	31
-65	-47	-278	32	31
-35	-8	-120	-55	31
5	11	64	-157	31
16	-9	74	-86	31
8	-6	47	84	31
-31	28	2	138	31
-50	41	-63	160	31
-60	48	-68	451	31
-27	50	-23	492	31
39	37	46	209	31
9	44	7	113	31
24	24	68	-69	31
71	38	166	-277	31
16	29	155	-326	31
4	6	138	-302	31
-12	49	42	-322	31
-12	49	42	-322	31
-12	49	42	-320	31
-12	49	42	-317	31
-12	49	42	-314	31
-12	48	43	-311	31
-12	48	43	-308	31
-12	48	43	-305	31
-12	47	44	-302	31
-12	47	44	-299	31
-12	47	44	-296	31
-12	46	45	-293	31
-12	46	45	-290	31
-12	46	45	-287	31
-12	45	46	-284	31
-12	45	46	-282	31
-12	45	46	-279	31
-12	44	46	-276	31
-12	44	47	-273	31
-12	44	47	-270	31
-12	43	47	-267	31
-12	43	48	-264	31
-12	43	48	-261	31
-12	42	48	-258	31
-12	42	49	-255	31
-12	42	49	-252	31
-12	41	49	-249	31
-12	41	50	-246	31
-12	41	50	-244	31
-12	40	50	-241	31
-12	40	50	-238	31
-13	40	51	-235	31
-13	39	51	-232	31
-13	39	51	-229	31
-13	39	52	-226	31
-13	38	52	-223	31
-13	38	52	-220	31
-13	38	53	-217	31
-13	37	53	-214	31
-13	37	53	-211	31
-13	37	54	-208	31
-13	36	54	-205	31
-13	36	54	-203	31
-13	36	54	-200	31
-13	36	55	-197	31
-13	35	55	-194	31
-13	35	55	-191	31
-13	35	56	-188	31
-13	34	56	-185	31
-13	34	56	-182	31
-13	34	57	-179	31
-13	33	57	-176	31
-13	33	57	-173	31
-13	33	58	-170	31
-13	32	58	-167	31
-13	32	58	-165	31
-13	32	58	-162	31
-13	31	59	-159	31
-13	31	59	-156	31
-13	31	59	-153	31
-13	30	60	-150	31
-14	30	60	-147	31
-14	30	60	-144	31
-14	29	61	-141	31
-14	29	61	-138	31
-14	29	61	-135	31
-14	28	62	-132	31
-14	28	62	-129	31
-14	28	62	-127	31
-14	27	62	-124	31
-14	27	63	-121	31
-14	27	63	-118	31
-14	26	63	-115	31
-14	26	64	-112	31
-14	26	64	-109	31
-14	25	64	-106	31
-14	25	65	-103	31
-14	25	65	-100	31
-14	24	65	-97	31
-14	24	66	-94	31
-14	24	66	-91	31
-14	23	66	-88	31
-14	23	66	-86	31
-14	23	67	-83	31
-14	23	67	-80	31
-14	22	67	-77	31
-14	22	68	-74	31
-14	22	68	-71	31
-14	21	68	-68	31
-14	21	69	-65	31
-14	21	69	-62	31
-15	20	69	-59	31
-15	20	70	-56	31
-15	20	70	-53	31
-15	19	70	-50	31
-15	19	70	-48	31
-15	19	71	-45	31
-15	18	71	-42	31
-15	18	71	-39	31
-15	18	72	-36	31
-15	17	72	-33	31
-15	17	72	-30	31
-15	17	73	-27	31
-15	16	73	-24	31
-15	16	73	-21	31
-15	16	74	-18	31
-15	15	74	-15	31
-15	15	74	-12	31
-15	15	74	-10	31
-15	14	75	-7	31
-15	14	75	-4	31
-15	14	75	-1	31
-15	13	76	2	31
-15	13	76	5	31
-15	13	76	8	31
-15	12	77	11	31
-15	12	77	14	31
-15	12	77	17	31
-15	11	78	20	31
-15	11	78	23	31
-15	11	78	26	31
-16	10	79	29	31
-26	19	3	41	31
-27	6	-93	-133	31
-36	10	-136	-165	31
-34	1	-150	-84	31
-36	7	-57	72	31
-1	19	39	175	31
30	21	52	21	31
2	26	63	160	31
-42	3	84	304	31
-44	-34	23	125	31
-30	-37	-69	-190	31
-7	47	-31	-224	31
11	212	-1	-224	31
16	298	45	-144	31
10	203	70	-31	31
-2	-13	72	-97	31
49	-297	74	159	31
82	-359	29	178	31
58	-174	-15	33	31
31	-103	-97	-59	31
6	-54	-104	-151	31
37	-24	-54	-160	31
79	-34	-31	-110	31
62	-2	-69	31	31
14	-2	-93	44	31
-103	3	-37	113	31
-171	3	20	252	31
-67	54	97	332	31
64	97	122	258	31
87	92	57	-19	31
39	58	-1	-278	31
24	-34	-31	-241	31
27	-88	14	-323	31
32	-55	101	-409	31
7	14	85	-15	31
-80	-12	42	64	31
-201	-11	60	-1	31
-168	12	54	19	31
-72	11	27	45	31
-72	11	27	45	31
-72	11	27	45	31
-71	11	27	45	31
-70	11	27	44	31
-69	11	27	44	31
-68	11	28	43	31
-67	11	28	43	31
-67	11	28	43	31
-66	11	28	42	31
-65	11	28	42	31
-64	11	29	41	31
-63	11	29	41	31
-62	11	29	41	31
-62	11	29	40	31
-61	11	29	40	31
-60	11	30	39	31
-59	11	30	39	31
-58	11	30	39	31
-57	10	30	38	31
-56	10	30	38	31
-56	10	31	37	31
-55	10	31	37	31
-54	10	31	37	31
-53	10	31	36	31
-52	10	31	36	31
-51	10	32	35	31
-51	10	32	35	31
-50	10	32	35	31
-49	10	32	34	31
-48	10	32	34	31
-47	10	33	33	31
-46	10	33	33	31
-46	10	33	33	31
-45	10	33	32	31
-44	10	33	32	31
-43	9	34	31	31
-42	9	34	31	31
-41	9	34	31	31
-40	9	34	30	31
-40	9	34	30	31
-39	9	35	29	31
-38	9	35	29	31
-37	9	35	29	31
-36	9	35	28	31
-35	9	35	28	31
-35	9	36	27	31
-34	9	36	27	31
-33	9	36	27	31
-32	9	36	26	31
-31	9	36	26	31
-30	9	37	25	31
-30	9	37	25	31
-29	9	37	25	31
-28	8	37	24	31
-27	8	37	24	31
-26	8	38	23	31
-25	8	38	23	31
-24	8	38	23	31
-24	8	38	22	31
-23	8	38	22	31
-22	8	39	21	31
-21	8	39	21	31
-20	8	39	21	31
-19	8	39	20	31
-19	8	39	20	31
-18	8	40	19	31
-17	8	40	19	31
-16	8	40	19	31
-15	8	40	18	31
-14	8	40	18	31
-13	7	41	17	31
-9	9	67	12	31
-24	16	64	-20	31
-47	11	2	-63	31
-42	12	-24	-36	31
-38	18	-17	-6	31
-38	20	13	-12	31
1	34	47	17	31
55	36	89	44	31
41	27	189	61	31
-2	20	201	75	31
4	27	107	75	31
-3	47	-22	79	31
-43	43	-168	54	31
-105	6	-274	44	31
-101	-33	-313	37	31
15	-24	-206	-66	31
85	22	11	-234	31
100	22	70	-264	31
107	-14	-76	-118	31
42	-26	-147	17	31
-12	-9	-112	115	31
-1	-10	-61	80	31
-27	1	1	38	31
17	33	-10	146	31
21	21	-49	135	31
-42	8	4	21	31
-19	-9	42	-161	31
-6	-39	12	-214	31
44	-31	24	34	31
37	7	58	142	31
-11	26	84	21	31
-24	28	120	2	31
-64	54	110	9	31
-60	48	36	3	31
-9	7	-6	-6	31
29	-52	31	-75	31
-44	-88	166	-65	31
-29	-39	323	-8	31
8	3	266	-14	31
-60	16	100	-32	31
18	16	-16	-13	31
67	-4	-161	-57	31
82	-22	-176	-72	31
100	-29	-36	-4	31
31	-2	74	59	31
-29	-6	99	98	31
-58	-9	41	55	31
-74	17	-117	16	31
-82	46	-282	4	31
-62	85	-307	-7	31
-32	90	-191	32	31
78	50	-12	98	31
92	-64	102	101	31
-29	-142	145	55	31
9	-120	156	17	31
11	-47	-7	-115	31
-110	45	-259	-171	31
-100	75	-379	-69	31
-19	57	-286	-25	31
-19	57	-286	-25	31
-19	57	-281	-26	31
-18	57	-276	-27	31
-17	57	-270	-28	31
-17	57	-265	-29	31
-16	57	-259	-31	31
-15	56	-254	-32	31
-14	56	-249	-33	31
-14	56	-243	-34	31
-13	56	-238	-35	31
-12	56	-232	-37	31
-12	56	-227	-38	31
-11	55	-222	-39	31
-10	55	-216	-40	31
-9	55	-211	-41	31
-9	55	-205	-43	31
-8	55	-200	-44	31
-7	55	-195	-45	31
-7	54	-189	-46	31
-6	54	-184	-47	31
-5	54	-178	-49	31
-4	54	-173	-50	31
-4	54	-168	-51	31
-3	54	-162	-52	31
-2	53	-157	-53	31
-2	53	-151	-55	31
-1	53	-146	-56	31
0	53	-141	-57	31
1	53	-135	-58	31
1	53	-130	-59	31
2	52	-124	-61	31
3	52	-119	-62	31
3	52	-114	-63	31
4	52	-108	-64	31
5	52	-103	-65	31
6	51	-97	-67	31
6	51	-92	-68	31
7	51	-87	-69	31
8	51	-81	-70	31
8	51	-76	-71	31
9	51	-70	-73	31
10	50	-65	-74	31
11	50	-60	-75	31
11	50	-54	-76	31
12	50	-49	-77	31
13	50	-43	-79	31
13	50	-38	-80	31
14	49	-33	-81	31
15	49	-27	-82	31
16	49	-22	-83	31
16	49	-16	-85	31
17	49	-11	-86	31
18	49	-6	-87	31
18	48	0	-88	31
19	48	5	-89	31
20	48	11	-91	31
21	48	16	-92	31
21	48	21	-93	31
22	48	27	-94	31
23	47	32	-95	31
23	47	38	-97	31
24	47	43	-98	31
25	47	48	-99	31
26	47	54	-100	31
26	47	59	-101	31
27	46	65	-103	31
28	46	70	-104	31
28	46	75	-105	31
29	46	81	-106	31
30	46	86	-107	31
31	45	92	-109	31
11	50	-38	-64	31
-7	24	-151	8	31
-20	9	-188	112	31
-15	-2	-127	64	31
-14	-20	-60	-35	31
-21	-23	-19	-7	31
-13	-14	34	6	31
-15	-1	143	2	31
-8	1	258	-4	31
-4	-7	176	-11	31
-8	-14	21	52	31
16	-2	-11	26	31
41	12	29	64	31
50	20	-45	52	31
52	20	-174	-47	31
50	9	-143	-18	31
26	-1	-109	-41	31
-8	-16	-199	-96	31
-13	-20	-221	-49	31
-5	-11	-66	60	31
-9	-12	108	68	31
-10	-12	100	24	31
-10	-7	24	27	31
-18	-7	42	-3	31
-28	-4	-21	1	31
-42	2	-72	50	31
-48	6	-27	31	31
-38	4	-19	-49	31
2	2	11	-135	31
50	3	50	-94	31
-2	11	89	7	31
-80	45	-12	-34	31
-53	60	-153	-32	31
-22	15	-98	9	31
26	-41	-99	46	31
134	-59	-8	59	31
171	-23	108	69	31
60	-9	-15	64	31
2	-26	-41	7	31
9	4	45	-12	31
-82	50	97	-28	31
-148	101	84	-4	31
-156	105	63	-42	31
-71	31	65	-80	31
61	-79	42	-65	31
127	-143	44	-8	31
148	-84	-10	145	31
83	12	-81	127	31
-7	34	-136	-96	31
-44	22	-70	-126	31
-60	-11	41	-34	31
-54	-88	39	1	31
-39	-96	79	-2	31
2	-16	121	-28	31
-31	57	130	7	31
-103	95	96	3	31
-118	52	52	31	31
-92	-49	-1	55	31
109	-85	-52	62	31
234	-75	-75	47	31
113	-77	-129	1	31
161	-12	-110	12	31
142	34	-44	-12	31
-34	18	21	-19	31
-1	49	65	20	31
-19	55	102	29	31
-33	50	146	18	31
-41	41	201	1	31
-56	13	183	2	31
31	-5	52	15	31
-8	-50	-37	16	31
-28	-26	-133	-9	31
6	11	-186	-51	31
-21	24	-113	-79	31
-28	14	-62	-49	31
-49	-14	-43	24	31
-35	14	-35	57	31
-11	21	-39	68	31
-31	21	-38	62	31
-24	17	-120	-30	31
-38	1	-206	-113	31
-45	-17	-101	-84	31
-47	-21	82	29	31
-50	6	145	80	31
-23	42	112	75	31
-14	79	42	66	31
-33	52	-4	38	31
-55	-24	-65	17	31
1	-88	-99	-67	31
118	-50	-31	-92	31
120	6	22	-31	31
35	-12	59	13	31
1	1	97	-45	31
-59	-1	124	-148	31
-132	2	87	-105	31
-143	16	-24	-24	31
-50	-9	-135	58	31
65	-33	-137	56	31
42	-27	-55	55	31
72	27	24	63	31
101	21	93	41	31
14	-6	75	108	31
31	-1	86	64	31
37	-1	130	7	31
32	-2	160	20	31
31	4	244	11	31
-22	29	198	-94	31
-7	39	7	-145	31
-14	36	-128	-119	31
9	-16	-237	-140	31
7	-72	-310	-37	31
1	-74	-357	59	31
-27	-31	-269	98	31
-78	3	-123	69	31
-36	2	-10	25	31
-4	17	120	92	31
59	12	158	181	31
31	3	226	114	31
19	-1	216	-33	31
32	-2	69	-38	31
-14	1	-72	-67	31
-13	-19	-87	-88	31
-54	-36	-19	-156	31
-62	-45	-66	-96	31
-66	-26	-123	63	31
-65	10	-46	-12	31
-51	31	-12	-115	31
-31	22	-69	-108	31
50	4	-75	27	31
77	-6	52	94	31
44	19	246	46	31
24	41	215	62	31
4	17	93	76	31
-21	19	-14	34	31
-6	10	-181	33	31
52	14	-217	27	31
49	42	-54	-2	31
-20	20	74	-28	31
-38	0	29	-64	31
-89	-44	8	-64	31
-130	-69	-7	-44	31
-108	-9	-29	22	31
-92	19	9	141	31
16	0	54	227	31
65	-28	2	35	31
-3	-29	-77	-168	31
96	24	-60	39	31
224	21	-42	210	31
147	5	54	60	31
75	6	141	-150	31
43	-2	213	-142	31
16	16	186	-62	31
13	3	57	-55	31
-34	-4	51	17	31
-68	-12	-63	44	31
-65	-8	-138	-95	31
-17	32	-59	-193	31
39	54	-14	-89	31
42	28	-110	2	31
22	-12	-74	102	31
-22	-28	65	188	31
-46	-41	4	86	31
-13	-20	-19	47	31
-25	-16	-9	108	31
-72	6	16	175	31
-105	115	-1	216	31
-105	143	19	15	31
-118	41	31	-264	31
-98	-132	-147	-229	31
47	-234	-221	-39	31
92	-67	-113	21	31
79	78	16	-2	31
102	60	76	-84	31
34	102	124	-54	31
30	55	72	-37	31
66	-29	28	-69	31
26	-109	65	6	31
8	-128	99	-22	31
26	-43	98	21	31
-23	-36	5	37	31
-52	-20	-61	-34	31
-44	-12	-109	-23	31
-49	17	-61	-19	31
52	39	-45	3	31
73	-22	-57	-3	31
16	-19	27	17	31
45	4	36	36	31
33	29	47	27	31
0	28	41	16	31
-27	17	1	-5	31
-43	24	-32	11	31
-34	6	-41	21	31
-25	22	31	42	31
-28	34	146	77	31
-52	60	145	-4	31
-93	124	27	-156	31
-125	148	-87	-82	31
-72	90	-140	83	31
34	26	-110	183	31
97	12	-122	97	31
65	-16	-104	51	31
-47	-86	-41	160	31
-160	-232	-14	60	31
-162	-284	-7	-98	31
-72	-128	61	-279	31
113	-22	165	-89	31
218	-17	174	125	31
90	-11	156	-31	31
90	21	103	-21	31
117	87	29	-25	31
65	105	-96	-27	31
62	29	-140	-62	31
32	-50	7	-102	31
-26	-85	46	-14	31
-81	-45	-84	18	31
-84	40	-211	55	31
-142	87	-221	69	31
-101	140	-47	55	31
-11	110	115	40	31
2	-26	179	-6	31
82	-89	142	-35	31
155	-101	51	-60	31
126	-67	-3	-49	31
-14	21	-82	32	31
-24	16	-161	23	31
-5	24	-175	-43	31
3	39	-32	-37	31
19	9	65	-39	31
-64	35	64	-26	31
-42	21	96	57	31
-62	14	14	105	31
-45	18	-63	44	31
26	11	-8	44	31
1	32	70	64	31
-7	37	103	31	31
-10	40	84	2	31
4	34	18	-55	31
30	21	11	-47	31
22	-24	12	-52	31
-27	-58	-74	-110	31
0	-62	24	-156	31
21	-33	60	-134	31
-2	-9	-100	-19	31
-1	-21	-100	186	31
-40	1	-84	249	31
-54	-3	-85	27	31
-62	7	-4	-24	31
-50	22	134	19	31
-41	5	183	-12	31
-69	9	97	113	31
-24	10	-39	208	31
67	20	-168	76	31
29	26	-105	-66	31
-7	18	8	-27	31
28	2	27	-32	31
1	-11	-15	-120	31
59	-21	-72	-54	31
58	-35	-29	113	31
-5	-32	3	65	31
24	-47	50	120	31
-1	-32	104	126	31
-13	0	152	-256	31
-19	-4	167	-211	31
-20	9	67	-5	31
-18	9	8	-67	31
-27	14	6	-27	31
-26	29	9	-26	31
-32	5	-4	-69	31
-37	-8	-16	-29	31
-17	-2	-201	54	31
64	-4	-334	123	31
27	-19	-276	85	31
-25	-7	-180	-171	31
42	12	85	-345	31
22	1	350	-264	31
-4	9	462	-128	31
-19	25	268	-54	31
-53	44	12	-74	31
-20	33	-317	194	31
43	-41	-570	474	31
55	-94	-270	348	31
40	-47	-54	102	31
80	4	-40	-54	31
7	-4	58	89	31
-66	18	9	185	31
-28	-4	74	65	31
-72	-3	191	82	31
-46	21	150	-13	31
-21	0	63	-173	31
3	2	-61	-152	31
74	-17	-71	-85	31
31	8	-33	-87	31
-18	22	-20	-191	31
-55	-9	-44	-166	31
-102	-29	-37	-1	31
-97	-17	20	141	31
7	61	86	151	31
87	84	212	-26	31
57	46	178	-226	31
14	-32	84	-59	31
34	-93	60	111	31
71	-47	110	-42	31
-7	-9	140	-77	31
-27	6	54	-7	31
70	39	14	4	31
-8	59	-11	-48	31
-90	103	11	7	31
-4	133	19	48	31
33	56	7	52	31
101	-79	-46	126	31
39	-164	-145	194	31
-168	-69	-70	192	31
-125	59	48	2	31
-94	-1	11	-1	31
-12	-83	-102	37	31
135	-146	-213	-164	31
108	-97	-292	-175	31
211	5	-229	-50	31
193	-22	-107	-21	31
-26	31	-4	-16	31
-64	31	18	18	31
-148	11	17	14	31
-229	52	49	-7	31
-75	38	47	95	31
54	90	64	133	31
34	85	79	-44	31
55	27	129	-83	31
125	-30	117	-1	31
73	-67	18	45	31
81	-34	-43	70	31
45	-13	-55	34	31
-80	1	-28	83	31
-53	24	4	36	31
-19	54	2	-41	31
1	17	29	-41	31
-4	-48	89	-66	31
-66	-68	78	-18	31
-100	-19	3	16	31
-64	21	-79	4	31
-67	-11	-118	26	31
-41	15	-112	86	31
79	9	-90	76	31
12	0	-38	-1	31
-22	66	64	-68	31
86	78	137	-148	31
22	11	123	-135	31
-72	-64	90	68	31
-7	-95	-8	175	31
-4	-5	-77	1	31
-4	-5	-77	1	31
-4	-5	-77	-2	31
-4	-5	-77	-5	31
-4	-5	-77	-8	31
-4	-5	-77	-11	31
-5	-6	-77	-14	31
-5	-6	-77	-17	31
-5	-6	-77	-20	31
-5	-6	-77	-23	31
-5	-6	-77	-26	31
-6	-7	-77	-30	31
-6	-7	-77	-33	31
-6	-7	-76	-36	31
-6	-7	-76	-39	31
-7	-7	-76	-42	31
-7	-8	-76	-45	31
-7	-8	-76	-48	31
-7	-8	-76	-51	31
-7	-8	-76	-54	31
-8	-8	-76	-57	31
-8	-9	-76	-61	31
-8	-9	-76	-64	31
-8	-9	-76	-67	31
-8	-9	-76	-70	31
-9	-9	-75	-73	31
-9	-10	-75	-76	31
-9	-10	-75	-79	31
-9	-10	-75	-82	31
-10	-10	-75	-85	31
-10	-10	-75	-88	31
-10	-11	-75	-92	31
-10	-11	-75	-95	31
-10	-11	-75	-98	31
-11	-11	-75	-101	31
-11	-11	-75	-104	31
-11	-12	-75	-107	31
-11	-12	-74	-110	31
-12	-12	-74	-113	31
-12	-12	-74	-116	31
-12	-12	-74	-119	31
-12	-13	-74	-123	31
-12	-13	-74	-126	31
-13	-13	-74	-129	31
-13	-13	-74	-132	31
-13	-13	-74	-135	31
-13	-14	-74	-138	31
-13	-14	-74	-141	31
-14	-14	-74	-144	31
-14	-14	-73	-147	31
-14	-14	-73	-150	31
-14	-15	-73	-154	31
-15	-15	-73	-157	31
-15	-15	-73	-160	31
-15	-15	-73	-163	31
-15	-15	-73	-166	31
-15	-16	-73	-169	31
-16	-16	-73	-172	31
-16	-16	-73	-175	31
-16	-16	-73	-178	31
-16	-16	-73	-181	31
-17	-17	-72	-185	31
-17	21	-22	-12	31
-26	17	-19	-75	31
32	38	60	-98	31
86	40	100	-49	31
-33	-24	82	-9	31
-117	-73	-11	14	31
-14	-90	-162	8	31
72	-21	-212	16	31
120	4	-138	-4	31
49	4	-33	138	31
-27	25	-19	293	31
-12	-9	9	165	31
-37	-48	83	-44	31
-54	-14	108	-138	31
-65	141	150	-150	31
-45	156	105	-14	31
-47	8	25	88	31
0	-64	-52	117	31
151	-59	-42	-9	31
151	14	93	-67	31
-39	-2	58	11	31
-88	11	-37	15	31
-38	62	-76	70	31
7	6	-101	47	31
70	-1	-72	-14	31
65	5	-68	-15	31
72	6	-77	39	31
12	-31	-57	-18	31
-1	-48	12	-48	31
3	-28	90	1	31
-24	-60	110	106	31
0	-60	110	176	31
-59	-38	66	-1	31
-59	-12	14	-102	31
-24	-4	9	-113	31
-35	14	17	-73	31
-31	12	60	-16	31
-54	-12	56	5	31
-70	4	31	12	31
-64	-7	12	-22	31
-26	-1	-50	-39	31
-6	11	-59	-65	31
-60	28	-45	-36	31
-29	54	-74	3	31
77	53	5	3	31
128	59	136	-15	31
115	32	102	-11	31
87	23	19	58	31
31	9	-94	81	31
-6	-9	-113	59	31
18	14	11	9	31
-9	17	-16	-12	31
-11	31	-29	-20	31
-14	16	-15	-44	31
-22	-15	-32	-40	31
-19	-27	-32	-32	31
-36	-63	-36	-30	31
-26	-85	-7	-2	31
-35	-64	7	125	31
-21	-22	30	160	31
-19	-13	39	68	31
-15	-3	50	75	31
-4	16	32	51	31
-22	-6	-2	-10	31
-16	-11	-29	-31	31
-13	-2	-36	6	31
-2	7	-31	31	31
-6	30	-6	-112	31
-19	31	92	-244	31
-27	-8	126	-173	31
-39	-48	43	-89	31
-26	-15	-72	-28	31
-17	-18	-127	174	31
-7	-39	-93	137	31
52	24	-74	-14	31
80	42	-70	85	31
18	42	-17	39	31
19	29	22	-2	31
37	11	22	22	31
22	17	17	-41	31
52	6	17	-117	31
32	8	-60	-158	31
12	-7	-64	-39	31
1	-15	-19	-24	31
-19	-14	-72	-87	31
-15	-4	-25	-100	31
-15	19	24	-71	31
-34	0	34	21	31
-57	-18	77	112	31
-36	-1	114	153	31
-11	10	140	-24	31
6	-1	170	12	31
22	-2	202	162	31
22	-15	163	87	31
21	-37	97	70	31
11	-23	21	135	31
-12	-6	-45	147	31
-22	7	-64	-39	31
-1	17	-6	-161	31
27	29	108	-104	31
22	30	4	-14	31
1	19	-244	43	31
-1	12	-342	-23	31
4	-6	-267	-50	31
6	-1	-123	-4	31
-1	21	-60	59	31
-18	19	-21	86	31
-52	5	-17	-67	31
-87	-32	-59	-97	31
-55	-57	-49	-19	31
63	-56	-52	23	31
55	-39	-31	113	31
-10	26	76	54	31
19	20	166	-162	31
-34	-41	191	-178	31
-48	-22	169	91	31
-39	-1	113	113	31
-105	-27	-4	21	31
-136	-46	-97	-4	31
-10	-4	-93	-14	31
181	44	-75	7	31
100	75	-74	-57	31
-47	104	-52	-7	31
-10	85	44	4	31
30	25	50	13	31
135	-58	35	47	31
167	-19	39	37	31
49	67	10	36	31
108	22	-17	-11	31
78	12	-46	-31	31
-13	-4	29	-69	31
21	-36	127	-89	31
-27	-39	218	-78	31
-16	-65	163	5	31
-19	-27	-12	123	31
-50	-16	-98	127	31
-64	-29	-145	59	31
-112	-31	-59	-7	31
-97	-23	54	-19	31
-99	-9	22	-8	31
-80	1	-16	-26	31
26	52	-98	24	31
105	86	-173	-42	31
7	67	-163	-269	31
-57	2	-131	-150	31
-17	-34	-12	-102	31
-47	-21	98	-287	31
38	-60	107	113	31
67	-63	100	512	31
51	-15	95	365	31
78	-13	46	151	31
-5	3	4	-41	31
-71	4	5	-94	31
-122	-16	37	-39	31
-95	1	44	-20	31
-11	32	33	14	31
30	24	36	18	31
36	-11	2	-4	31
40	1	-14	-17	31
15	8	-26	-49	31
-34	-10	-43	-70	31
6	-35	5	-52	31
34	-6	71	-16	31
52	64	93	-2	31
45	32	0	7	31
11	25	-133	16	31
27	33	-189	-31	31
4	17	-128	-34	31
-10	24	-16	12	31
-12	-14	-7	24	31
16	-13	-28	61	31
7	-13	-9	40	31
-49	-22	41	-50	31
-22	-2	73	-35	31
-31	3	49	-26	31
-30	9	7	-44	31
-19	1	-42	-6	31
-11	8	-18	-4	31
19	15	64	-36	31
11	32	80	-82	31
9	59	11	-26	31
-7	41	-72	29	31
-24	18	-69	-22	31
-26	-2	27	-22	31
-6	-37	64	-9	31
15	-77	35	12	31
2	-55	6	75	31
-54	-28	-65	101	31
-80	-64	-69	64	31
-39	-48	-24	-7	31
-44	-17	-55	-32	31
-47	-22	-74	9	31
-9	-27	-41	12	31
37	7	65	-39	31
34	146	163	-141	31
2	232	133	-198	31
-17	143	67	-207	31
-55	9	1	-74	31
-12	-184	-97	410	31
-12	-184	-97	410	31
-12	-184	-96	405	31
-12	-183	-95	399	31
-12	-182	-93	394	31
-12	-181	-92	388	31
-12	-180	-90	383	31
-12	-179	-89	377	31
-13	-178	-87	372	31
-13	-178	-86	366	31
-13	-177	-84	360	31
-13	-176	-83	355	31
-13	-175	-81	349	31
-13	-174	-80	344	31
-14	-173	-78	338	31
-14	-172	-77	333	31
-14	-171	-75	327	31
-14	-171	-74	322	31
-14	-170	-72	316	31
-14	-169	-71	310	31
-14	-168	-69	305	31
-15	-167	-68	299	31
-15	-166	-66	294	31
-15	-165	-65	288	31
-15	-164	-63	283	31
-15	-164	-62	277	31
-15	-163	-60	272	31
-16	-162	-59	266	31
-16	-161	-57	260	31
-16	-160	-56	255	31
-16	-159	-54	249	31
-16	-158	-53	244	31
-16	-157	-51	238	31
-17	-157	-50	233	31
-17	-156	-48	227	31
-17	-155	-47	222	31
-17	-154	-45	216	31
-17	-153	-44	210	31
-17	-152	-43	205	31
-17	-151	-41	199	31
-18	-151	-40	194	31
-18	-150	-38	188	31
-18	-149	-37	183	31
-18	-148	-35	177	31
-18	-147	-34	172	31
-18	-146	-32	166	31
-19	-145	-31	160	31
-19	-144	-29	155	31
-19	-144	-28	149	31
-19	-143	-26	144	31
-19	-142	-25	138	31
-19	-141	-23	133	31
-20	-140	-22	127	31
-20	-139	-20	122	31
-20	-138	-19	116	31
-20	-137	-17	110	31
-20	-137	-16	105	31
-20	-136	-14	99	31
-20	-135	-13	94	31
-21	-134	-11	88	31
-21	-133	-10	83	31
-21	-132	-8	77	31
-21	-131	-7	72	31
-21	-130	-5	66	31
-21	-130	-4	60	31
-22	-129	-2	55	31
-22	-128	-1	49	31
-22	-127	1	44	31
-22	-126	2	38	31
-22	-125	4	33	31
-22	-124	5	27	31
-23	-123	7	21	31
-21	-111	19	6	31
-29	-92	-14	18	31
-52	-43	-14	13	31
-28	12	-6	26	31
1	79	27	29	31
-12	179	42	-16	31
-98	260	51	-39	31
-155	250	65	-32	31
-111	133	16	42	31
-34	-62	-24	66	31
36	-240	-69	85	31
95	-300	-88	44	31
110	-186	-40	-1	31
114	-57	-26	-37	31
67	-54	3	-73	31
-27	-9	68	-59	31
-34	53	71	-65	31
-47	84	52	-54	31
-35	105	39	-31	31
10	-6	-12	21	31
37	-184	-90	9	31
75	-204	-91	19	31
59	-28	-34	103	31
27	36	-39	92	31
-3	18	-11	29	31
-4	73	38	-18	31
-18	33	23	-26	31
-42	-9	8	-41	31
-42	-39	-22	-50	31
-64	-16	-54	-2	31
-49	115	-33	36	31
-22	220	20	40	31
-19	260	80	46	31
-42	192	158	36	31
-40	84	146	45	31
-5	-96	98	87	31
17	-292	70	102	31
51	-241	-4	77	31
67	-67	18	-94	31
53	-13	43	-312	31
12	-7	61	-261	31
-9	65	47	-79	31
-21	241	-95	71	31
-42	500	-158	155	31
-67	576	-187	39	31
-92	398	-177	31	31
-32	-1	-17	60	31
57	-456	123	75	31
127	-570	79	100	31
107	-453	-6	-72	31
45	-337	-67	-93	31
9	-262	-148	50	31
12	-200	-85	71	31
69	-110	-47	-22	31
31	-36	-80	-69	31
6	27	-44	-64	31
10	69	-4	-92	31
-9	87	-1	-12	31
-4	93	-14	54	31
-19	82	55	-28	31
-24	89	94	-6	31
-34	142	58	65	31
-45	194	5	27	31
-50	193	-37	67	31
-47	119	-22	38	31
-57	-7	27	-47	31
-54	-6	48	-27	31
-10	100	44	-22	31
-43	85	102	-16	31
-40	-8	139	-2	31
38	-112	88	22	31
37	-148	-37	22	31
36	-55	-181	5	31
26	32	-142	17	31
7	136	100	74	31
8	207	233	109	31
-47	167	140	35	31
-98	133	-41	-70	31
-89	78	-171	-127	31
-25	34	-148	-186	31
16	-55	-70	-128	31
46	-360	6	85	31
158	-530	41	218	31
183	-327	21	210	31
105	-143	59	102	31
61	-79	37	29	31
25	21	1	-16	31
-19	65	-8	-67	31
-46	63	-65	-112	31
-43	63	-128	-130	31
-79	17	-54	-197	31
-92	-57	101	-296	31
-134	-108	-24	-173	31
-155	-105	-125	-46	31
1	-44	-18	-95	31
65	64	114	61	31
1	199	117	208	31
19	276	-14	-7	31
54	224	7	-31	31
19	128	37	80	31
17	21	32	190	31
21	-36	-34	267	31
9	31	-103	142	31
11	20	-90	55	31
-12	-120	-57	-21	31
-36	-160	33	26	31
-22	-103	68	48	31
7	-70	74	18	31
-11	-17	95	-27	31
-6	21	43	-100	31
65	32	-21	-22	31
82	85	-31	13	31
-11	105	-36	-8	31
-68	95	-19	-36	31
-70	117	31	-40	31
-81	136	120	-40	31
-85	186	192	-65	31
-73	405	182	-72	31
36	574	82	-78	31
32	468	-87	-1	31
-34	305	-308	175	31
44	-34	-370	89	31
49	-293	-101	-137	31
75	-9	2	-15	31
85	2	-40	-25	31
38	-510	1	-24	31
46	-683	-11	91	31
42	-436	82	89	31
34	-108	175	116	31
-20	-25	127	50	31
12	-292	-11	32	31
108	-641	-133	2	31
158	-770	-152	-54	31
138	-386	-67	-71	31
49	-57	19	-36	31
27	7	62	49	31
10	139	66	82	31
-22	102	10	1	31
-43	131	-23	-52	31
-45	178	-14	-79	31
-40	131	84	-197	31
-46	188	150	-139	31
-49	221	100	-29	31
-103	220	92	9	31
-107	166	75	34	31
-56	130	-48	-26	31
-50	75	-186	-42	31
-68	-35	-204	-61	31
-79	-100	-99	50	31
-78	-88	-64	478	31
-65	-12	-8	465	31
-13	54	151	-125	31
11	107	115	-149	31
10	141	105	-82	31
31	140	146	-221	31
12	120	75	-102	31
-17	107	-36	-89	31
-23	59	-150	55	31
-7	19	-85	44	31
37	42	12	6	31
31	29	87	55	31
-31	-3	105	-1	31
-48	-39	-56	41	31
-43	-54	-183	35	31
-35	1	-194	38	31
-19	54	-152	26	31
-16	77	-39	24	31
16	57	103	-54	31
46	31	161	-72	31
46	31	161	-72	31
48	21	158	-72	31
50	11	154	-71	31
52	1	150	-70	31
54	-10	147	-70	31
57	-20	143	-69	31
59	-30	139	-68	31
61	-40	136	-68	31
63	-51	132	-67	31
66	-61	128	-66	31
68	-71	125	-65	31
70	-81	121	-65	31
72	-92	117	-64	31
75	-102	114	-63	31
77	-112	110	-63	31
79	-123	106	-62	31
81	-133	103	-61	31
83	-143	99	-61	31
86	-153	95	-60	31
88	-164	92	-59	31
90	-174	88	-58	31
92	-184	84	-58	31
95	-194	80	-57	31
97	-205	77	-56	31
99	-215	73	-56	31
101	-225	69	-55	31
104	-235	66	-54	31
106	-246	62	-54	31
108	-256	58	-53	31
110	-266	55	-52	31
113	-277	51	-51	31
115	-287	47	-51	31
117	-297	44	-50	31
119	-307	40	-49	31
121	-318	36	-49	31
124	-328	33	-48	31
126	-338	29	-47	31
128	-348	25	-47	31
130	-359	22	-46	31
133	-369	18	-45	31
135	-379	14	-44	31
137	-389	10	-44	31
139	-400	7	-43	31
142	-410	3	-42	31
144	-420	-1	-42	31
146	-431	-4	-41	31
148	-441	-8	-40	31
150	-451	-12	-40	31
153	-461	-15	-39	31
155	-472	-19	-38	31
157	-482	-23	-37	31
159	-492	-26	-37	31
162	-502	-30	-36	31
164	-513	-34	-35	31
166	-523	-37	-35	31
168	-533	-41	-34	31
171	-543	-45	-33	31
173	-554	-48	-33	31
175	-564	-52	-32	31
177	-574	-56	-31	31
180	-585	-60	-30	31
125	-599	-61	-114	31
112	-359	-66	-103	31
97	-236	-65	-46	31
-24	-67	-7	24	31
39	44	72	57	31
39	108	103	19	31
34	148	70	22	31
30	44	65	104	31
-4	29	130	72	31
-6	3	117	-24	31
-24	20	-4	-84	31
-14	92	-99	-13	31
-87	184	-135	190	31
-141	457	-50	264	31
-160	648	0	185	31
-156	588	-150	234	31
-62	189	-369	306	31
56	-477	-266	-300	31
190	-729	42	-482	31
181	-469	65	-201	31
105	-258	93	-440	31
54	-112	202	-179	31
-23	-2	183	49	31
-14	22	72	45	31
-16	60	-68	91	31
-38	60	-122	-20	31
-37	57	-73	-23	31
-24	69	-14	-31	31
-7	64	7	10	31
-40	59	62	53	31
-51	56	151	115	31
-43	78	221	47	31
-20	75	186	-37	31
32	79	88	51	31
42	91	-24	149	31
4	68	-95	208	31
-19	47	-84	136	31
-36	25	-136	-1	31
-31	16	-198	-191	31
0	31	-150	-275	31
-9	27	-12	-34	31
0	21	55	278	31
11	24	40	270	31
-12	15	28	3	31
-11	22	62	-172	31
19	11	158	-304	31
12	-37	143	-13	31
-22	-56	29	447	31
-23	-58	-45	504	31
-23	-58	-45	504	31
-24	-58	-45	497	31
-25	-58	-44	490	31
-26	-58	-44	483	31
-27	-58	-43	476	31
-29	-58	-42	469	31
-30	-58	-42	462	31
-31	-58	-41	455	31
-32	-58	-41	448	31
-33	-58	-40	441	31
-35	-58	-39	433	31
-36	-58	-39	426	31
-37	-58	-38	419	31
-38	-58	-37	412	31
-39	-58	-37	405	31
-41	-58	-36	398	31
-42	-58	-36	391	31
-43	-58	-35	384	31
-44	-58	-34	377	31
-45	-58	-34	370	31
-47	-58	-33	362	31
-48	-58	-33	355	31
-49	-58	-32	348	31
-50	-58	-31	341	31
-51	-58	-31	334	31
-53	-58	-30	327	31
-54	-58	-29	320	31
-55	-58	-29	313	31
-56	-58	-28	306	31
-57	-58	-28	299	31
-59	-57	-27	291	31
-60	-57	-26	284	31
-61	-57	-26	277	31
-62	-57	-25	270	31
-63	-57	-25	263	31
-65	-57	-24	256	31
-66	-57	-23	249	31
-67	-57	-23	242	31
-68	-57	-22	235	31
-69	-57	-21	228	31
-71	-57	-21	220	31
-72	-57	-20	213	31
-73	-57	-20	206	31
-74	-57	-19	199	31
-75	-57	-18	192	31
-77	-57	-18	185	31
-78	-57	-17	178	31
-79	-57	-17	171	31
-80	-57	-16	164	31
-81	-57	-15	157	31
-83	-57	-15	149	31
-84	-57	-14	142	31
-85	-57	-13	135	31
-86	-57	-13	128	31
-87	-57	-12	121	31
-89	-57	-12	114	31
-90	-57	-11	107	31
-91	-57	-10	100	31
-92	-57	-10	93	31
-93	-57	-9	86	31
-95	-56	-8	78	31
-132	-75	-5	26	31
-103	-43	16	39	31
-85	-20	24	-14	31
-4	14	-4	-127	31
115	35	2	-145	31
127	54	49	-160	31
85	97	69	-125	31
108	117	117	103	31
66	76	127	233	31
16	77	40	62	31
-14	59	-124	36	31
-66	-2	-208	125	31
-42	-6	-101	52	31
-17	0	62	-151	31
-28	2	1	-25	31
-13	-11	-157	62	31
12	-9	-103	-139	31
7	6	-20	-132	31
-12	-2	-14	-211	31
-12	5	60	-105	31
-9	-7	117	-44	31
-1	-26	179	-17	31
9	-12	241	244	31
0	7	102	319	31
-6	67	-50	27	31
-17	118	-145	-115	31
-21	113	-142	83	31
14	94	-65	77	31
-6	38	-100	238	31
-36	-26	-96	233	31
22	-52	-32	-12	31
75	-39	31	-120	31
50	-28	77	-142	31
-17	-30	112	-118	31
-19	-44	127	-89	31
-46	-156	48	-68	31
-81	-251	53	-35	31
-52	-198	50	-2	31
-29	-95	-104	-146	31
42	-35	-149	-193	31
47	2	-89	-82	31
16	41	-54	72	31
1	43	-22	17	31
-31	67	3	-99	31
-36	117	26	-48	31
-23	133	60	-54	31
29	112	105	-49	31
49	42	163	-106	31
47	-44	141	-115	31
47	-44	141	-115	31
47	-44	141	-114	31
46	-44	140	-113	31
46	-44	139	-111	31
45	-44	139	-110	31
45	-43	138	-109	31
44	-43	137	-107	31
43	-43	136	-106	31
43	-43	136	-105	31
42	-43	135	-103	31
42	-42	134	-102	31
41	-42	134	-101	31
41	-42	133	-99	31
40	-42	132	-98	31
39	-41	131	-97	31
39	-41	131	-95	31
38	-41	130	-94	31
38	-41	129	-93	31
37	-41	129	-91	31
37	-40	128	-90	31
36	-40	127	-88	31
35	-40	126	-87	31
35	-40	126	-86	31
34	-40	125	-84	31
34	-39	124	-83	31
33	-39	124	-82	31
33	-39	123	-80	31
32	-39	122	-79	31
31	-38	121	-78	31
31	-38	121	-76	31
30	-38	120	-75	31
30	-38	119	-74	31
29	-38	119	-72	31
29	-37	118	-71	31
28	-37	117	-70	31
27	-37	116	-68	31
27	-37	116	-67	31
26	-36	115	-66	31
26	-36	114	-64	31
25	-36	114	-63	31
24	-36	113	-61	31
24	-36	112	-60	31
23	-35	111	-59	31
23	-35	111	-57	31
22	-35	110	-56	31
22	-35	109	-55	31
21	-35	109	-53	31
20	-34	108	-52	31
20	-34	107	-51	31
19	-34	106	-49	31
19	-34	106	-48	31
18	-33	105	-47	31
18	-33	104	-45	31
17	-33	104	-44	31
16	-33	103	-43	31
16	-33	102	-41	31
15	-32	101	-40	31
15	-32	101	-39	31
14	-32	100	-37	31
14	-32	99	-36	31
13	-31	98	-34	31
12	-31	98	-33	31
12	-31	97	-32	31
11	-31	96	-30	31
11	-31	96	-29	31
10	-30	95	-28	31
10	-30	94	-26	31
9	-30	93	-25	31
8	-30	93	-24	31
8	-30	92	-22	31
7	-29	91	-21	31
7	-29	91	-20	31
6	-29	90	-18	31
6	-29	89	-17	31
5	-28	88	-16	31
4	-28	88	-14	31
4	-28	87	-13	31
3	-28	86	-12	31
3	-28	86	-10	31
2	-27	85	-9	31
1	-27	84	-7	31
1	-27	83	-6	31
0	-27	83	-5	31
0	-27	82	-3	31
-1	-26	81	-2	31
-1	-26	81	-1	31
-2	-26	80	1	31
-3	-26	79	2	31
-3	-25	78	3	31
-4	-25	78	5	31
-4	-25	77	6	31
-5	-25	76	7	31
-5	-25	76	9	31
-6	-24	75	10	31
-7	-24	74	11	31
-7	-24	73	13	31
-8	-24	73	14	31
-8	-23	72	15	31
-9	-23	71	17	31
-9	-23	71	18	31
-10	-23	70	20	31
-11	-23	69	21	31
-11	-22	68	22	31
-12	-22	68	24	31
-12	-22	67	25	31
-13	-22	66	26	31
-13	-22	66	28	31
-14	-21	65	29	31
-15	-21	64	30	31
-15	-21	63	32	31
-16	-21	63	33	31
-16	-20	62	34	31
-17	-20	61	36	31
-17	-20	61	37	31
-18	-20	60	38	31
-19	-20	59	40	31
-19	-19	58	41	31
-20	-19	58	42	31
-20	-19	57	44	31
-21	-19	56	45	31
-22	-18	55	47	31
84	20	106	92	31
176	-2	166	43	31
45	-62	186	-66	31
-42	-82	52	23	31
-9	1	-91	-12	31
-1	75	-80	-100	31
26	48	-63	-50	31
0	-29	42	-9	31
4	-156	122	-48	31
25	-212	18	-107	31
11	-93	-56	-74	31
8	-9	-67	-92	31
7	19	-44	-36	31
9	52	-92	124	31
9	20	-150	173	31
0	-11	-117	117	31
-7	-54	-54	41	31
6	-18	-42	-62	31
6	49	-15	-158	31
-9	36	77	-133	31
-22	49	29	96	31
-50	29	-17	239	31
-27	12	57	59	31
27	12	74	-9	31
41	-2	55	142	31
33	31	67	181	31
-2	47	19	112	31
-25	34	-85	129	31
-37	27	-115	-14	31
-82	10	-37	-416	31
-121	-4	47	-420	31
-107	-1	37	-167	31
-44	11	31	-143	31
18	10	21	-134	31
69	-2	-28	-57	31
95	7	-87	12	31
72	65	-44	19	31
13	112	97	54	31
4	87	198	65	31
24	42	165	-13	31
40	-10	-24	-26	31
60	-29	-148	45	31
16	1	-152	148	31
-22	-44	-96	164	31
-2	-82	-49	141	31
47	-64	-22	131	31
80	-67	30	17	31
27	-46	63	-142	31
-34	-11	62	-140	31
-25	1	73	2	31
-38	-27	148	-21	31
-39	-24	215	50	31
4	-8	197	108	31
-30	-26	19	-105	31
-75	-24	-209	-132	31
-57	-34	-212	-54	31
-40	-32	-103	-4	31
-27	7	-29	-64	31
-2	56	27	-59	31
42	98	16	85	31
75	57	-13	78	31
39	-39	-35	-2	31
9	-98	-57	12	31
-17	-92	-47	110	31
-29	-56	-63	247	31
-20	-62	-87	380	31
-64	-45	-72	175	31
-90	-8	-47	44	31
-110	23	-12	82	31
-110	23	-12	82	31
-109	23	-13	83	31
-107	22	-14	85	31
-105	21	-15	87	31
-103	20	-16	89	31
-102	19	-17	91	31
-100	18	-18	93	31
-98	17	-19	95	31
-96	16	-20	97	31
-95	15	-21	98	31
-93	14	-22	100	31
-91	13	-23	102	31
-89	12	-24	104	31
-88	11	-25	106	31
-86	10	-26	108	31
-84	9	-27	110	31
-82	8	-28	112	31
-80	7	-29	114	31
-79	6	-30	115	31
-77	5	-31	117	31
-75	4	-32	119	31
-73	3	-33	121	31
-72	2	-34	123	31
-70	1	-35	125	31
-68	0	-36	127	31
-66	-1	-37	129	31
-65	-2	-38	130	31
-63	-3	-39	132	31
-61	-4	-40	134	31
-59	-5	-41	136	31
-57	-6	-42	138	31
-56	-7	-43	140	31
-54	-8	-44	142	31
-52	-9	-45	144	31
-50	-10	-46	146	31
-49	-11	-47	147	31
-47	-12	-48	149	31
-45	-13	-49	151	31
-43	-14	-50	153	31
-42	-15	-51	155	31
-40	-16	-52	157	31
-38	-17	-53	159	31
-36	-18	-54	161	31
-35	-19	-55	162	31
-33	-20	-56	164	31
-31	-21	-57	166	31
-29	-22	-58	168	31
-27	-23	-59	170	31
-26	-24	-60	172	31
-24	-25	-61	174	31
-22	-26	-62	176	31
-20	-27	-63	178	31
-19	-28	-64	179	31
-17	-29	-65	181	31
-15	-30	-66	183	31
-13	-31	-67	185	31
-12	-32	-68	187	31
-10	-33	-69	189	31
-8	-34	-70	191	31
-6	-35	-71	193	31
-4	-36	-72	195	31
-3	-36	-73	196	31
-1	-37	-74	198	31
1	-38	-75	200	31
3	-39	-76	202	31
4	-40	-77	204	31
6	-41	-78	206	31
8	-42	-79	208	31
10	-43	-80	210	31
11	-44	-81	211	31
13	-45	-82	213	31
15	-46	-83	215	31
17	-47	-84	217	31
18	-48	-85	219	31
20	-49	-86	221	31
22	-50	-87	223	31
24	-51	-88	225	31
26	-52	-89	227	31
27	-53	-90	228	31
29	-54	-91	230	31
31	-55	-92	232	31
33	-56	-93	234	31
34	-57	-94	236	31
36	-58	-95	238	31
38	-59	-96	240	31
40	-60	-97	242	31
41	-61	-98	243	31
43	-62	-99	245	31
45	-63	-100	247	31
47	-64	-101	249	31
49	-65	-102	251	31
50	-66	-103	253	31
52	-67	-104	255	31
54	-68	-105	257	31
56	-69	-106	259	31
57	-70	-107	260	31
59	-71	-108	262	31
61	-72	-109	264	31
63	-73	-110	266	31
64	-74	-111	268	31
66	-75	-112	270	31
68	-76	-113	272	31
70	-77	-114	274	31
71	-78	-115	275	31
73	-79	-116	277	31
75	-80	-117	279	31
77	-81	-118	281	31
79	-82	-119	283	31
80	-83	-120	285	31
82	-84	-121	287	31
84	-85	-122	289	31
86	-86	-123	291	31
87	-87	-124	292	31
89	-88	-125	294	31
91	-89	-126	296	31
93	-90	-127	298	31
94	-91	-128	300	31
96	-92	-129	302	31
98	-93	-130	304	31
100	-94	-131	306	31
102	-95	-132	308	31
231	11	-136	539	31
209	253	-138	293	31
-245	499	-108	-228	31
-415	404	-77	-40	31
-279	128	-74	-16	31
-135	-378	-42	222	31
189	-932	59	424	31
662	-753	123	626	31
592	-189	57	802	31
-42	51	50	177	31
-391	109	-35	-562	31
-428	45	-85	-543	31
-297	-197	-52	-11	31
102	-145	-223	144	31
246	121	-268	-247	31
582	174	-209	-486	31
742	227	-168	-187	31
140	126	-82	90	31
-279	-136	-64	540	31
-705	-137	-36	512	31
-734	-102	47	-581	31
-335	-313	57	-1257	31
-105	-129	57	-989	31
551	237	213	113	31
561	169	371	420	31
-43	156	558	180	31
4	274	591	170	31
-35	456	246	-168	31
17	461	-44	-150	31
215	15	-229	254	31
-483	-417	-430	339	31
-873	-323	-546	25	31
-476	227	-562	225	31
-467	106	-370	176	31
-43	-186	-102	488	31
1390	21	-67	718	31
1589	-194	-51	433	31
352	-144	29	480	31
235	187	180	-38	31
162	156	154	-313	31
-342	-6	22	-439	31
-501	-87	224	-227	31
-780	19	227	52	31
-241	-27	-12	-69	31
150	-36	-55	-399	31
129	-62	315	-1121	31
-17	-143	537	-968	31
-512	-97	280	-704	31
-693	-226	-16	-278	31
-959	-310	-331	36	31
-731	-29	-471	-233	31
470	289	-371	378	31
971	279	-92	577	31
674	127	131	382	31
642	1	270	550	31
251	-26	349	431	31
41	71	202	138	31
171	44	119	-355	31
1	-58	31	-449	31
17	54	-70	150	31
-120	163	-134	279	31
-261	167	-274	98	31
-201	96	-285	191	31
-55	-64	-282	110	31
52	-128	-246	67	31
-11	-23	-54	-80	31
50	112	30	-41	31
23	70	70	168	31
34	69	107	176	31
53	82	173	374	31
-32	110	274	569	31
-76	135	262	549	31
-57	-90	257	394	31
-56	-185	101	-58	31
-81	-93	-109	-817	31
-38	-56	49	-991	31
-92	24	239	-361	31
-108	166	38	179	31
-66	257	-187	305	31
-67	197	-415	559	31
-55	17	-739	853	31
-44	-236	-839	618	31
-4	-328	-517	153	31
20	-190	68	-430	31
14	-125	318	-820	31
14	-67	434	-1148	31
23	-6	335	-1115	31
-3	-49	33	-383	31
-69	-52	36	-262	31
-59	-17	86	36	31
-29	42	272	209	31
-40	39	347	70	31
-22	14	48	256	31
-14	30	-144	-356	31
-19	-4	-281	-121	31
-14	12	-287	187	31
-2	16	83	147	31
15	24	220	340	31
19	40	280	48	31
23	38	543	253	31
27	67	532	120	31
16	34	240	58	31
-1	-22	-194	229	31
-14	-21	-511	325	31
3	25	-562	413	31
18	23	-441	-34	31
-20	-18	-325	-38	31
50	-27	17	229	31
132	-12	302	26	31
6	1	299	-74	31
25	-8	403	100	31
125	6	129	83	31
31	15	-168	-34	31
19	8	34	-206	31
6	6	205	-403	31
-15	-11	27	-240	31
-2	-11	-360	42	31
-36	5	-504	-43	31
-22	32	-450	-100	31
-70	44	-307	-26	31
-123	55	29	-22	31
-149	74	226	65	31
-154	70	484	71	31
-111	36	414	84	31
-13	-12	165	91	31
183	-39	176	49	31
256	-49	-120	-127	31
181	-34	-354	-77	31
91	-45	-486	142	31
-59	-55	-402	-140	31
-93	-7	-85	-159	31
-47	-2	203	49	31
12	-84	261	46	31
193	-176	180	135	31
163	-114	150	82	31
57	-6	72	81	31
63	-10	97	53	31
-15	20	-14	-122	31
-90	81	-173	-204	31
-223	187	-206	-38	31
-272	208	-86	213	31
-194	57	137	169	31
-132	-65	315	283	31
102	-193	428	256	31
230	-161	322	76	31
-14	4	184	94	31
-118	11	45	199	31
-42	-2	-39	-204	31
105	6	-55	-1007	31
348	-24	-173	-463	31
230	-54	-248	-38	31
-127	41	-151	-213	31
-194	130	-67	-97	31
-255	55	-278	-401	31
-287	49	-385	-264	31
123	196	-231	49	31
224	285	57	270	31
199	87	272	615	31
194	19	416	600	31
-14	280	702	50	31
62	234	591	-395	31
-175	-143	176	-175	31
-99	-557	165	68	31
237	-752	31	172	31
112	-411	-469	86	31
85	8	-664	105	31
-37	45	-492	213	31
-59	-60	-570	91	31
80	-78	-786	-159	31
34	115	-535	-208	31
-27	205	-222	146	31
35	87	335	305	31
-16	-11	834	445	31
-73	-79	635	451	31
-62	22	-107	148	31
-264	-2	-787	-85	31
-462	33	-610	-608	31
-482	143	-343	-830	31
-348	-51	-67	-277	31
49	-197	332	1	31
691	-110	371	-12	31
785	88	363	67	31
231	69	307	-46	31
-1	57	395	-46	31
9	61	396	-41	31
-15	21	206	-39	31
-49	79	42	-22	31
-118	27	57	0	31
-59	170	463	112	31
-14	265	558	89	31
-65	164	423	87	31
-60	-81	408	45	31
-4	-277	38	36	31
11	-87	-399	122	31
32	20	-378	151	31
9	59	-547	276	31
-59	32	-810	449	31
-133	66	-486	-7	31
-228	270	-427	-598	31
-101	189	-508	-286	31
113	-156	-327	23	31
89	-487	-165	-149	31
89	-408	109	-165	31
106	-108	266	-12	31
41	-6	358	75	31
19	31	332	34	31
-50	-7	145	180	31
-52	-34	279	414	31
-28	16	568	500	31
-27	36	459	426	31
-6	69	83	62	31
-17	88	-151	-620	31
-20	93	-362	-876	31
-25	103	-383	-312	31
-29	81	-42	-168	31
-36	59	345	-170	31
-8	46	634	61	31
5	13	576	102	31
2	5	366	158	31
7	2	1	93	31
-25	-11	-527	125	31
-29	2	-663	-42	31
-46	3	-676	-261	31
-53	-1	-946	-354	31
-56	-16	-617	-261	31
-33	-23	216	182	31
70	8	325	413	31
89	17	416	435	31
27	22	694	335	31
21	42	568	121	31
9	32	5	27	31
-14	14	-550	-36	31
8	1	-701	-238	31
9	-14	-563	-128	31
19	4	53	86	31
16	54	178	-35	31
-9	56	332	74	31
-7	25	638	153	31
-15	-17	426	-57	31
-2	-79	349	23	31
18	-107	118	169	31
20	-100	-150	9	31
18	-64	-487	-82	31
-9	1	-766	-55	31
-22	77	-727	-87	31
-11	100	-98	-135	31
-13	66	365	-70	31
6	55	602	149	31
15	3	1054	201	31
15	3	1054	201	31
15	3	1039	205	31
15	2	1023	209	31
15	2	1007	213	31
15	1	991	217	31
15	0	975	221	31
15	0	959	225	31
15	-1	943	229	31
15	-2	927	233	31
15	-2	911	237	31
15	-3	895	241	31
15	-4	879	245	31
15	-4	863	249	31
15	-5	847	253	31
15	-6	831	257	31
15	-6	815	261	31
15	-7	799	265	31
15	-8	783	269	31
15	-8	767	273	31
15	-9	751	277	31
15	-10	735	281	31
15	-10	719	285	31
15	-11	703	289	31
15	-12	687	293	31
15	-12	671	298	31
15	-13	655	302	31
15	-14	639	306	31
15	-14	623	310	31
15	-15	607	314	31
15	-16	591	318	31
15	-16	575	322	31
15	-17	559	326	31
15	-18	543	330	31
15	-18	527	334	31
15	-19	511	338	31
15	-20	495	342	31
15	-20	479	346	31
15	-21	463	350	31
15	-21	447	354	31
15	-22	431	358	31
15	-23	415	362	31
15	-23	399	366	31
15	-24	383	370	31
15	-25	367	374	31
15	-25	351	378	31
15	-26	335	382	31
15	-27	319	386	31
15	-27	303	391	31
15	-28	287	395	31
15	-29	271	399	31
15	-29	255	403	31
15	-30	239	407	31
15	-31	223	411	31
15	-31	207	415	31
15	-32	191	419	31
15	-33	175	423	31
15	-33	159	427	31
15	-34	143	431	31
15	-35	127	435	31
15	-35	111	439	31
15	-36	95	443	31
15	-37	79	447	31
15	-37	63	451	31
15	-38	47	455	31
15	-39	31	459	31
15	-39	15	463	31
15	-40	-1	467	31
15	-41	-17	471	31
15	-41	-33	475	31
15	-42	-49	479	31
14	-43	-65	484	31
-130	-1	315	-994	31
-254	48	556	-1670	31
-199	-47	-19	-996	31
-88	70	-363	-246	31
27	323	-148	21	31
178	406	72	-89	31
-14	368	68	5	31
-131	247	191	-42	31
282	198	370	179	31
190	-78	519	464	31
-124	-331	508	438	31
39	-551	2	356	31
178	-729	-595	-95	31
239	-477	-771	-545	31
338	-399	-681	-532	31
264	-123	-406	208	31
19	79	-42	574	31
-67	75	243	842	31
-93	444	482	1055	31
-174	824	265	298	31
-237	1210	-12	297	31
-295	924	-194	820	31
-222	247	-155	-227	31
3	-338	266	-1483	31
156	-745	431	-1808	31
49	-801	401	-1499	31
-54	-721	97	-299	31
-107	-264	-32	199	31
-7	-160	47	332	31
162	-139	-107	455	31
105	-371	-117	264	31
114	-659	-99	146	31
77	-100	-51	-20	31
22	-11	16	231	31
-11	119	-6	211	31
-59	279	-38	-30	31
-55	58	-60	-100	31
-60	60	-87	124	31
36	68	-74	445	31
-2	266	-32	173	31
-90	305	-107	135	31
-67	280	-173	107	31
-39	108	-70	-10	31
-17	-126	-1	319	31
-22	74	7	-19	31
-36	234	103	-672	31
-109	289	72	-294	31
-119	240	131	458	31
-44	37	315	408	31
36	-141	180	-21	31
34	-85	27	-234	31
-4	149	-5	-281	31
5	186	-135	-205	31
-9	178	-70	109	31
21	56	71	118	31
31	-239	112	-2	31
32	-276	74	229	31
47	-99	-188	150	31
16	-17	-295	-194	31
-4	0	-275	52	31
-8	34	-350	279	31
11	33	-141	-171	31
19	51	115	371	31
9	41	57	519	31
-21	14	-87	-94	31
-44	11	-163	41	31
-37	-7	-120	-244	31
-45	-6	23	-799	31
-68	6	60	-602	31
-98	73	151	-245	31
-120	237	199	-325	31
-102	417	159	-8	31
-26	428	136	131	31
42	340	72	118	31
92	10	171	299	31
128	-482	194	188	31
84	-684	82	203	31
98	-702	32	-36	31
110	-298	-62	-282	31
33	146	-95	-153	31
-57	442	-138	62	31
-139	740	-292	56	31
-89	409	-123	41	31
3	-274	16	77	31
61	-938	-14	46	31
126	-806	124	67	31
137	-162	98	147	31
85	-97	-18	463	31
106	7	-142	506	31
74	112	-171	307	31
-91	237	-11	-239	31
-135	388	187	-880	31
-132	180	194	-540	31
-74	-100	138	11	31
50	-387	283	50	31
88	-284	295	98	31
89	-65	153	41	31
9	21	-49	47	31
-26	157	-189	162	31
-19	104	-98	42	31
-47	72	-77	193	31
-26	4	-161	244	31
-38	31	-156	46	31
-31	161	-318	-185	31
-12	122	-383	-187	31
-10	46	-22	295	31
-14	-23	193	317	31
-39	65	168	-9	31
-49	163	79	-314	31
-47	140	-209	-446	31
14	20	-217	-169	31
51	-133	-45	-6	31
37	-107	3	-77	31
11	42	111	-222	31
-47	222	58	-158	31
-62	316	56	4	31
-78	296	65	75	31
-62	112	39	97	31
-21	-50	63	89	31
-44	20	24	68	31
-48	479	32	62	31
-53	829	12	69	31
-52	4	6	52	31
64	-1120	9	57	31
244	-1307	31	60	31
295	-694	63	63	31
180	-320	41	56	31
77	-262	21	41	31
31	-27	29	-1	31
-21	-35	44	-49	31
-48	29	82	-41	31
-50	65	208	-12	31
-59	57	247	17	31
-58	122	109	33	31
-55	99	-182	12	31
-58	289	-414	-24	31
-64	537	-268	-103	31
-85	690	-2	-108	31
-79	462	130	-49	31
-29	-117	185	46	31
34	-607	110	247	31
62	-575	-113	122	31
31	-159	-287	87	31
8	-38	-285	271	31
19	41	-127	-4	31
31	125	70	-403	31
7	77	105	-416	31
24	89	125	-266	31
30	72	95	-202	31
-33	92	-62	50	31
-17	81	-99	213	31
-14	37	-107	240	31
-29	14	-126	203	31
-11	-22	19	102	31
-10	-31	229	29	31
3	-19	202	-46	31
0	12	59	-13	31
2	16	-115	-69	31
4	27	-93	-89	31
-3	41	247	-29	31
-10	44	419	26	31
-41	52	348	265	31
-56	63	9	350	31
6	102	-317	-37	31
32	94	-405	2	31
-26	57	-372	29	31
-7	34	-176	-397	31
21	71	-139	-242	31
29	128	28	-2	31
64	9	292	14	31
60	-97	290	21	31
34	-155	259	-17	31
-47	-199	50	-34	31
-80	-116	-155	26	31
-80	-88	-81	34	31
-136	22	113	-24	31
-143	138	72	0	31
-150	173	-84	23	31
-87	165	-94	25	31
130	-19	-209	4	31
176	-235	-337	24	31
44	-427	-266	-2	31
48	-308	-19	-23	31
14	-98	17	15	31
-37	-103	6	22	31
53	-25	57	16	31
47	-11	55	-11	31
13	17	150	-36	31
111	47	188	-41	31
68	32	197	-47	31
-11	68	70	-20	31
66	55	-65	90	31
16	71	-86	92	31
-18	92	-26	22	31
-14	173	81	-1	31
-59	241	77	44	31
-55	197	-16	84	31
-59	215	-83	39	31
-38	323	-63	81	31
-52	391	-9	-16	31
-65	244	81	-233	31
-29	-186	163	-201	31
23	-507	231	-4	31
107	-328	218	109	31
149	-248	51	238	31
139	-269	-187	158	31
53	184	-389	-305	31
-55	330	-366	-474	31
-77	24	-65	-163	31
-85	-297	80	173	31
-43	-510	135	198	31
32	-280	239	80	31
22	-110	110	130	31
-31	133	11	146	31
-50	466	-158	196	31
-42	206	-280	-12	31
-10	-91	-183	-363	31
59	-294	-127	-267	31
65	-305	-83	-130	31
11	98	9	34	31
-59	395	151	355	31
-139	627	244	258	31
-167	558	229	-113	31
-126	21	37	-97	31
31	-386	-59	2	31
160	-548	57	-1	31
242	-709	161	-85	31
267	-464	292	-159	31
111	-112	248	-8	31
-11	-85	54	43	31
-38	52	-154	139	31
-58	39	-395	214	31
-55	67	-426	68	31
-35	121	-224	-89	31
-29	80	17	-217	31
-27	168	164	-299	31
-44	269	170	-178	31
-89	512	50	7	31
-105	527	-72	199	31
-79	170	-64	294	31
-27	-296	-49	189	31
43	-419	-57	320	31
86	-176	-7	82	31
57	-67	9	-107	31
34	-24	31	107	31
23	-4	79	-128	31
6	32	-51	-52	31
-8	34	-238	271	31
-23	29	-150	206	31
-27	42	-18	-93	31
-44	14	58	-592	31
-29	36	186	-458	31
-16	26	150	-5	31
-23	36	47	-68	31
-7	42	21	-120	31
-8	53	9	-81	31
-28	103	-9	57	31
-46	140	19	340	31
-64	169	60	482	31
-44	123	-10	97	31
37	122	-16	-277	31
43	196	108	-15	31
-16	216	122	-27	31
15	32	176	-235	31
59	-389	271	-175	31
68	-608	153	-168	31
59	-408	12	-107	31
41	-172	-67	-32	31
31	-47	-52	67	31
27	37	-62	136	31
41	83	-148	102	31
